851
847
846
847
847
846
849
844
856
864
860
854
851
851
847
851
854
859
860
859
858
856
853
851
851
852
855
852
846
844
849
845
849
857
859
860
860
856
851
851
855
856
860
857
852
845
841
839
838
841
847
851
847
848
849
856
864
865
865
864
863
857
852
854
862
865
862
860
860
856
856
854
852
852
854
852
853
860
867
870
870
868
867
860
860
856
856
857
856
854
853
847
850
854
856
859
857
853
856
860
864
863
855
849
847
847
848
844
838
836
839
849
856
859
859
859
855
851
847
844
839
835
839
860
873
873
867
862
857
856
851
849
856
861
857
848
844
848
847
849
854
856
857
860
860
859
860
856
857
865
873
881
884
884
880
875
873
876
880
889
889
892
1026
1027
893
895
1028
1031
1027
893
889
886
883
879
876
871
871
875
878
872
868
862
863
864
865
860
852
851
851
854
852
857
852
847
847
847
849
849
848
851
857
861
867
865
859
856
852
847
844
841
847
855
849
868
881
878
874
871
866
864
863
860
855
849
847
864
868
857
848
841
841
839
844
849
847
841
835
828
824
830
835
842
852
871
889
1036
1052
1075
1095
1112
1131
1289
1326
1373
1538
1564
1590
1624
1654
1811
1841
1859
1871
1886
1886
1886
1886
1886
1871
1840
1659
1579
1374
1304
1127
1078
1030
839
782
600
556
514
351
326
315
319
335
359
383
528
550
578
611
632
775
790
804
819
824
828
832
828
824
830
834
838
830
825
827
824
825
824
824
824
826
828
830
830
832
832
831
830
828
827
827
828
824
824
828
832
830
835
843
844
845
847
843
844
844
843
841
841
841
839
839
834
832
832
832
844
864
859
848
860
868
876
880
880
878
872
868
867
867
866
864
861
857
856
858
859
862
865
865
862
864
871
878
878
876
875
875
873
871
872
873
870
870
875
875
872
869
870
870
869
875
881
883
888
888
883
880
887
895
1030
1031
895
889
886
880
880
890
1028
1039
1051
1055
1047
1040
1031
1033
1036
1036
1038
1038
1039
1038
1033
1036
1039
1039
1040
1042
1041
1041
1043
1044
1046
1046
1046
1048
1067
1083
1076
1071
1065
1065
1067
1073
1076
1075
1073
1073
1076
1083
1091
1095
1093
1087
1087
1087
1090
1087
1087
1090
1091
1092
1095
1095
1090
1087
1084
1086
1091
1095
1099
1100
1103
1102
1108
1112
1105
1100
1096
1094
1091
1087
1087
1087
1085
1083
1078
1079
1080
1075
1069
1063
1061
1059
1061
1057
1054
1053
1049
1044
1039
1039
1048
1040
1032
1027
1026
1024
893
892
894
893
884
876
869
864
857
852
851
846
835
824
818
815
813
812
808
799
798
799
799
792
792
804
799
790
783
778
781
788
787
780
769
636
639
637
631
632
628
626
632
768
770
771
639
636
633
632
768
636
627
620
620
624
628
634
638
636
632
632
768
771
639
771
785
792
784
775
772
775
777
777
777
781
783
790
792
793
785
782
783
787
788
785
785
787
792
799
804
797
793
796
796
794
792
794
796
797
787
796
799
799
798
798
824
843
839
826
818
815
815
817
819
817
812
813
812
812
816
813
807
804
803
817
828
835
830
831
831
830
832
838
838
835
830
824
824
823
823
830
836
839
843
841
839
839
841
847
851
847
844
835
832
835
839
839
844
839
843
847
852
861
857
851
851
852
850
851
847
847
852
854
855
849
844
838
832
836
841
841
847
850
849
851
851
854
851
848
843
841
841
842
838
835
835
840
859
860
854
846
843
847
850
855
852
846
836
844
847
851
857
856
852
848
846
841
843
843
836
836
835
835
844
851
851
860
856
844
847
852
851
845
838
839
849
851
862
865
865
860
861
860
858
856
856
852
849
849
855
854
851
846
847
847
850
849
847
844
844
841
847
852
852
848
843
838
835
832
838
842
846
847
862
871
861
851
856
854
857
857
859
856
852
847
847
851
856
852
854
853
856
847
841
834
837
838
854
867
870
868
867
871
864
860
856
852
847
845
839
837
843
850
857
852
851
855
857
856
864
862
864
875
868
857
856
849
861
871
854
847
856
857
854
849
847
846
847
849
853
856
857
857
851
849
856
867
871
871
863
859
859
859
859
854
845
849
867
867
867
869
866
860
862
863
865
865
855
849
855
862
865
870
865
859
857
856
871
874
868
860
857
856
859
868
881
881
865
858
864
871
866
860
860
864
862
862
862
871
875
870
867
865
863
860
859
860
865
867
861
864
870
867
862
855
857
862
862
871
871
868
863
854
856
856
860
865
867
857
849
848
847
853
871
875
867
867
867
869
871
873
870
868
864
867
871
871
873
880
883
883
883
888
886
883
880
876
878
880
887
1024
1030
1027
1024
1025
1044
1047
1038
1031
894
1036
1041
1026
1024
1033
1033
1025
889
888
891
893
892
883
876
871
870
867
867
864
862
860
860
862
859
851
854
859
859
860
860
855
860
871
874
878
876
872
865
865
873
871
865
867
871
864
855
854
851
853
859
868
880
881
879
871
870
864
863
867
867
860
857
864
867
860
859
852
841
831
830
830
839
847
859
885
1026
1037
1054
1072
1085
1105
1131
1281
1310
1338
1364
1398
1563
1590
1616
1642
1796
1821
1834
1848
1865
1871
1874
1871
1862
1837
1792
1599
1392
1319
1127
1075
895
854
799
622
575
532
370
339
320
324
331
344
358
382
540
569
579
598
633
791
804
826
844
847
852
860
863
865
873
875
870
867
856
847
846
844
840
844
843
843
838
836
839
849
856
861
857
856
851
847
849
849
847
844
857
886
886
876
854
847
854
854
855
854
849
847
856
864
863
865
867
869
873
871
868
872
870
876
880
879
880
879
879
878
878
878
877
871
871
873
883
883
888
887
888
884
879
879
876
876
880
894
1024
889
885
878
877
882
889
890
892
1036
1042
1031
1025
888
885
891
888
883
887
889
886
888
895
1033
1039
1049
1055
1052
1043
1036
1032
1034
1038
1039
1033
1035
1049
1041
1035
1035
1039
1047
1051
1054
1055
1055
1059
1063
1063
1061
1060
1058
1057
1052
1049
1049
1059
1079
1075
1072
1070
1067
1065
1076
1080
1081
1084
1086
1091
1084
1086
1084
1079
1080
1080
1087
1086
1095
1091
1091
1097
1103
1107
1103
1095
1100
1100
1100
1107
1110
1112
1105
1101
1103
1101
1104
1110
1118
1120
1118
1115
1113
1112
1107
1096
1095
1097
1099
1097
1095
1092
1092
1091
1083
1078
1081
1082
1079
1073
1066
1060
1062
1063
1065
1075
1087
1090
1079
1059
1046
1036
1033
1025
894
1039
1036
894
1025
1036
1030
888
878
868
862
859
862
860
852
841
839
836
832
828
825
819
811
804
803
806
799
799
803
801
796
797
792
787
783
785
783
783
782
775
775
771
637
637
638
769
772
775
775
771
771
771
771
769
770
771
774
775
772
770
772
771
772
771
771
780
775
638
637
639
780
793
799
798
795
793
792
792
792
799
803
799
793
792
795
792
787
788
792
797
799
807
825
835
824
814
811
809
806
812
825
817
808
808
812
807
816
827
839
837
833
838
840
838
835
838
838
836
835
832
832
832
827
825
828
832
835
832
831
835
838
836
832
835
831
832
832
830
833
836
836
844
847
844
846
847
847
846
847
852
853
851
852
857
862
861
855
856
857
854
861
866
856
847
839
837
841
847
854
860
866
866
860
865
867
862
856
850
846
848
864
876
868
859
854
848
848
850
856
856
858
855
851
855
864
870
871
867
868
871
864
852
849
851
851
854
851
847
858
859
862
864
862
856
856
849
843
839
843
847
853
855
857
859
856
860
861
863
873
881
895
876
852
852
855
856
857
857
857
853
851
847
843
839
846
855
863
856
852
854
855
860
878
890
877
867
862
860
860
859
856
848
849
853
860
865
867
862
854
856
864
873
873
876
875
864
856
856
856
859
860
861
860
860
859
856
855
856
856
856
859
861
862
873
875
871
867
862
861
862
864
864
862
864
862
864
865
864
864
860
861
875
882
876
871
876
875
867
863
863
856
852
850
851
849
852
854
852
857
864
867
876
891
891
886
882
880
871
875
878
875
871
864
859
857
860
862
863
862
870
876
876
868
864
865
871
871
868
865
864
863
862
863
868
871
872
871
873
867
866
874
881
881
871
868
867
869
864
864
861
860
854
861
880
891
881
865
856
852
853
856
854
859
864
863
859
857
857
860
867
867
868
867
856
852
853
851
849
860
875
873
876
883
883
882
873
867
868
873
876
881
883
884
891
889
888
887
887
888
884
888
888
894
895
1027
1031
1028
1025
888
880
874
877
1029
1041
1043
1043
1041
1035
1031
1027
1026
893
884
871
863
859
851
847
847
858
871
878
873
865
871
883
880
873
871
872
871
876
872
871
870
864
864
861
854
846
839
841
861
880
876
873
875
873
871
876
880
876
877
875
867
860
862
860
859
854
851
853
862
869
861
856
851
849
844
838
836
839
843
844
845
847
864
880
893
1047
1081
1111
1127
1150
1294
1319
1350
1382
1543
1577
1615
1649
1796
1819
1839
1856
1864
1872
1875
1886
1886
1880
1844
1659
1584
1383
1304
1123
1074
895
839
784
611
568
527
368
361
359
352
356
371
526
549
569
585
604
624
769
785
793
804
830
845
859
864
864
860
859
856
847
844
842
844
839
836
837
835
832
835
836
851
857
852
854
851
851
847
846
846
844
843
843
843
844
846
845
846
849
855
855
852
854
857
864
867
864
864
867
864
856
849
839
842
848
856
866
865
867
869
871
874
893
1028
892
883
878
875
876
876
872
868
868
870
868
871
877
883
881
873
872
878
892
1030
1027
895
892
889
881
888
886
883
880
875
876
878
879
881
891
1028
1039
1043
1040
1032
1028
1027
1027
1030
1031
1036
1039
1028
1024
1031
1037
1043
1043
1044
1044
1041
1033
1034
1035
1038
1041
1044
1052
1057
1057
1060
1059
1049
1044
1043
1041
1048
1055
1072
1080
1075
1069
1071
1075
1079
1073
1071
1069
1070
1075
1072
1080
1085
1087
1084
1084
1086
1094
1105
1107
1099
1089
1083
1092
1112
1116
1116
1116
1110
1105
1110
1107
1105
1104
1105
1108
1107
1103
1102
1099
1100
1107
1115
1123
1110
1096
1095
1100
1103
1098
1095
1097
1098
1095
1089
1086
1080
1081
1080
1082
1087
1089
1084
1073
1061
1055
1053
1054
1052
1052
1052
1057
1055
1055
1060
1051
1038
1030
1024
888
889
1031
1025
881
872
865
863
856
843
833
827
819
811
812
822
822
814
807
822
817
812
807
806
798
796
793
796
796
792
787
782
777
775
771
771
773
775
775
775
638
630
635
769
786
791
783
777
771
770
771
771
639
638
633
630
630
638
775
776
772
769
768
638
774
780
783
787
785
780
775
775
780
787
785
787
791
796
799
801
798
792
807
815
807
807
811
807
805
803
804
807
814
817
807
812
819
823
820
817
819
824
824
827
832
825
824
824
820
819
824
827
825
825
824
822
819
822
824
824
824
825
833
849
852
844
841
839
835
830
832
827
825
839
846
848
849
850
851
854
860
860
857
851
847
841
836
836
841
843
851
851
844
838
839
860
876
868
849
859
871
878
869
860
860
863
870
867
867
865
861
857
856
853
854
852
852
856
862
864
864
860
854
857
864
864
855
846
836
835
837
839
844
844
851
858
862
860
855
856
859
857
859
860
862
858
855
854
851
851
851
847
851
854
852
850
854
857
856
855
856
859
865
864
856
851
851
850
847
839
839
832
830
836
841
847
865
880
878
869
864
860
863
865
863
862
863
860
852
849
847
861
871
863
854
853
857
862
864
867
864
857
855
859
857
860
864
862
853
855
849
839
835
839
847
855
853
849
851
857
863
865
871
873
871
868
867
862
857
852
853
856
856
861
860
861
862
861
860
860
860
861
857
855
851
847
847
857
870
867
860
851
851
860
867
869
867
868
866
865
867
867
867
865
860
856
850
856
864
869
880
883
865
856
855
867
880
880
873
871
868
866
870
872
874
874
873
871
871
871
865
864
865
862
864
864
861
860
863
856
863
867
870
872
873
870
860
851
847
848
847
849
847
847
853
860
857
855
857
856
856
857
857
862
865
862
862
861
862
862
856
851
846
847
857
871
880
884
892
894
894
894
1027
1027
895
891
892
894
1024
1024
1024
1025
1027
1025
894
1025
892
889
1039
1054
1055
1048
1038
1032
1024
889
886
886
882
886
883
873
870
864
860
853
861
879
888
886
879
871
867
871
870
862
856
857
860
860
860
860
866
862
859
859
857
856
856
856
857
859
862
873
878
876
870
864
860
862
862
856
850
856
856
850
847
850
856
865
864
858
849
844
836
835
833
826
832
870
871
862
861
870
892
1048
1071
1087
1105
1116
1132
1287
1321
1357
1385
1547
1577
1609
1648
1799
1831
1861
1875
1886
1886
1886
1886
1886
1886
1873
1831
1642
1570
1370
1302
1107
1047
863
811
627
578
532
362
335
320
317
331
355
382
531
548
567
588
611
632
782
787
809
831
843
841
835
839
839
845
846
843
838
836
836
838
841
847
843
836
828
822
819
819
828
838
847
864
857
844
839
839
837
835
834
837
839
832
835
849
849
846
851
851
860
865
867
863
862
861
858
856
862
867
867
864
860
859
860
860
865
871
873
873
871
867
866
868
866
864
862
864
870
876
878
876
874
875
873
871
873
876
873
871
871
872
883
1027
894
885
875
880
881
880
883
883
884
888
1024
1041
1044
1041
1041
1037
1033
1033
1031
1026
894
892
895
1028
1027
1025
895
1025
1033
1035
1031
1038
1052
1052
1046
1048
1044
1041
1041
1043
1043
1040
1039
1047
1057
1059
1063
1063
1063
1063
1063
1062
1063
1064
1068
1078
1080
1080
1075
1075
1075
1076
1077
1082
1086
1090
1097
1097
1091
1090
1092
1095
1100
1100
1103
1102
1100
1099
1097
1095
1094
1103
1112
1104
1101
1106
1115
1115
1113
1115
1119
1120
1115
1111
1104
1096
1091
1092
1086
1095
1099
1096
1087
1083
1086
1105
1109
1101
1100
1102
1102
1095
1084
1080
1075
1076
1079
1076
1068
1057
1054
1052
1049
1046
1041
1036
1037
1031
1031
1033
1030
892
881
876
872
867
864
864
859
847
835
824
819
828
824
819
812
816
819
816
809
803
798
796
795
794
792
792
787
782
771
776
774
771
782
795
792
777
636
632
632
637
769
638
631
632
638
768
636
632
630
628
625
630
637
777
782
776
770
771
775
775
778
791
793
787
777
776
777
777
775
776
777
775
769
780
783
788
790
787
787
791
792
791
790
791
792
790
791
792
795
799
803
797
796
802
807
812
811
811
812
813
817
819
817
812
807
804
805
811
818
832
835
831
830
831
833
838
833
831
832
828
833
830
825
824
827
830
832
833
839
844
843
843
846
848
851
854
855
856
856
854
847
844
849
848
847
845
841
849
858
851
847
849
852
856
862
878
880
868
860
857
852
851
854
851
852
854
847
846
846
841
836
839
843
847
849
847
847
851
856
856
852
852
852
847
849
852
854
847
847
844
841
852
861
863
859
858
856
852
851
850
849
851
853
852
852
851
847
844
840
841
843
851
864
859
859
857
860
859
851
847
847
851
847
854
862
864
859
852
854
851
849
856
860
860
862
860
857
853
846
839
844
847
853
855
851
853
851
856
860
860
859
863
864
859
860
860
858
857
857
851
840
847
854
852
850
847
847
856
862
864
862
867
871
865
854
851
851
849
846
862
874
873
872
869
867
866
862
864
867
864
860
857
855
858
856
857
865
873
873
871
871
867
867
864
856
854
856
856
855
859
875
879
871
871
868
860
861
862
867
864
862
863
863
860
856
857
859
862
867
867
869
870
871
873
868
866
871
873
879
881
873
869
868
869
865
864
864
864
863
867
864
859
857
862
864
852
845
856
854
856
862
865
865
860
856
859
856
850
843
847
847
857
878
889
881
873
862
860
860
860
865
868
871
875
873
873
872
868
867
865
891
1033
892
881
878
888
1032
1038
1036
1027
1028
1031
1028
1027
1031
1035
1031
892
892
1024
1029
1030
1030
1027
894
890
886
886
888
883
873
870
867
865
862
861
867
867
868
870
871
871
867
867
869
870
871
875
870
862
855
852
855
849
851
860
863
863
859
856
856
856
859
867
871
867
869
875
879
875
867
871
867
862
861
860
860
862
863
864
867
870
871
864
852
847
843
841
841
845
847
851
847
864
879
1025
1049
1099
1133
1139
1147
1286
1310
1340
1372
1400
1564
1605
1647
1820
1846
1867
1876
1885
1886
1886
1886
1886
1886
1867
1825
1622
1543
1347
1284
1087
895
839
776
596
554
515
355
327
319
323
331
348
371
513
537
564
579
608
636
790
807
821
830
844
851
853
859
860
854
851
849
847
839
839
839
839
832
828
830
830
833
839
846
846
847
846
841
841
844
844
836
835
836
843
849
856
858
860
859
856
860
863
858
851
846
847
850
855
860
864
863
861
856
863
867
880
888
873
870
870
872
877
879
879
878
878
876
873
875
874
875
875
875
877
878
888
1035
1036
1031
1025
891
888
886
889
888
891
893
883
878
882
883
886
890
888
878
870
864
868
888
1027
895
892
1031
1040
1042
1051
1043
1031
1031
1033
1031
1039
1042
1041
1041
1044
1046
1044
1039
1046
1039
1046
1043
1035
1026
1027
1034
1044
1057
1057
1062
1063
1063
1068
1067
1072
1076
1086
1083
1081
1079
1071
1068
1073
1076
1080
1083
1084
1086
1084
1089
1090
1090
1095
1096
1098
1102
1098
1098
1100
1110
1105
1103
1102
1099
1095
1102
1112
1116
1118
1120
1120
1119
1116
1113
1107
1111
1116
1124
1121
1124
1124
1123
1119
1116
1118
1112
1105
1102
1099
1094
1095
1100
1102
1096
1090
1091
1096
1093
1091
1091
1087
1079
1073
1080
1075
1063
1072
1079
1071
1059
1048
1048
1047
1037
1031
1024
1025
894
884
880
875
879
879
868
853
855
847
843
847
838
825
819
817
817
812
812
816
818
812
800
790
793
799
795
787
783
785
777
771
773
774
768
772
780
778
774
774
775
771
771
636
633
630
636
769
630
627
630
636
769
782
785
785
782
783
784
780
785
783
780
776
780
780
782
783
790
783
768
777
788
790
788
798
792
787
793
799
805
807
799
807
817
816
819
816
819
812
803
792
785
787
790
800
816
832
838
838
831
828
827
825
825
830
831
828
828
829
823
824
830
829
824
820
820
832
841
835
839
841
836
833
832
832
836
831
832
838
842
839
844
844
843
841
839
847
847
852
852
841
842
847
846
840
836
835
841
841
854
867
867
862
851
844
847
857
861
856
852
855
856
845
850
860
859
851
855
856
849
851
863
860
848
849
847
844
845
850
857
864
860
852
852
849
847
860
852
841
846
856
862
859
862
864
862
856
857
855
856
859
862
859
854
854
859
863
860
855
847
844
844
836
841
847
851
851
854
860
871
880
876
867
860
859
856
859
867
870
864
856
864
869
868
868
867
864
864
865
867
868
867
864
857
854
851
849
851
855
857
864
865
864
860
864
867
867
867
864
868
875
868
865
860
861
860
851
848
848
843
846
851
858
856
852
861
878
878
867
857
852
851
851
857
873
880
873
864
855
867
871
870
865
864
865
864
864
864
867
867
873
867
864
867
867
864
862
860
861
858
859
865
868
872
871
867
865
867
869
864
866
864
864
864
864
857
859
856
856
856
857
856
848
844
851
865
876
876
872
869
867
867
863
856
852
860
868
870
871
866
859
859
856
864
869
871
876
883
891
891
891
891
890
888
881
878
876
879
879
886
887
891
894
1025
1025
1030
1035
1035
1035
1033
1027
888
879
881
876
868
873
887
880
871
867
867
871
878
883
888
880
871
864
862
864
860
854
852
855
864
875
871
875
871
868
867
864
863
863
861
864
870
873
878
868
860
856
854
857
864
868
870
872
869
870
875
870
865
867
865
862
859
846
844
860
862
861
869
873
861
847
838
836
836
834
838
847
865
887
1036
1052
1066
1080
1095
1109
1123
1147
1307
1340
1383
1558
1588
1608
1625
1648
1795
1809
1819
1823
1823
1827
1825
1817
1793
1615
1543
1344
1148
1087
895
842
795
621
572
536
519
367
335
324
324
331
348
376
532
554
575
593
615
770
798
806
814
822
835
841
847
855
861
865
871
876
873
873
877
867
856
852
851
846
846
847
839
835
832
835
846
855
871
884
879
864
859
864
867
867
865
864
864
860
856
859
864
865
864
863
867
876
876
876
868
860
856
862
866
873
883
881
866
856
851
852
871
880
871
865
860
857
864
884
1036
1043
1029
892
887
886
883
883
883
880
880
888
889
889
884
882
884
892
1024
892
888
889
889
885
888
892
1028
1043
1039
1027
1027
1024
889
886
887
888
891
892
894
1024
1027
1030
1032
1036
1039
1039
1036
1031
1031
1031
1028
1031
1030
1024
1025
1037
1048
1054
1063
1066
1067
1068
1064
1048
1052
1055
1058
1056
1057
1059
1073
1073
1068
1069
1068
1064
1065
1074
1080
1080
1081
1084
1083
1081
1077
1080
1098
1112
1103
1096
1092
1100
1107
1095
1097
1111
1116
1117
1112
1107
1107
1115
1131
1148
1142
1133
1128
1122
1116
1112
1108
1113
1113
1112
1107
1107
1108
1108
1100
1099
1101
1102
1105
1111
1109
1099
1087
1091
1097
1094
1089
1081
1075
1075
1070
1067
1065
1067
1068
1062
1052
1052
1048
1046
1036
1033
1027
1026
1026
892
883
876
872
870
864
856
852
842
832
844
836
830
819
817
812
817
817
816
819
809
800
795
785
775
774
771
773
783
786
786
784
782
779
779
780
776
774
768
628
627
628
627
624
771
785
793
792
780
783
791
783
778
782
783
783
779
782
785
784
783
783
780
780
775
769
636
638
775
777
788
796
792
788
792
791
796
794
792
790
790
789
793
798
794
798
802
801
801
803
807
807
812
816
819
816
807
803
803
806
803
806
809
798
795
798
815
825
820
826
847
845
836
830
831
839
840
839
838
836
828
827
825
823
822
825
832
833
832
830
833
835
840
846
852
858
862
859
860
854
849
849
846
847
847
849
847
846
846
847
850
849
846
841
843
851
860
859
847
838
837
844
844
841
858
860
856
858
865
865
862
864
862
860
856
852
849
848
846
849
852
852
853
854
857
857
854
843
839
838
839
863
871
865
862
860
861
856
847
847
851
855
864
864
856
856
848
847
847
844
844
837
845
852
856
856
856
854
847
841
839
845
857
869
873
871
864
860
859
860
863
857
859
860
856
851
847
846
846
851
847
843
839
841
846
846
856
871
876
873
876
876
872
868
871
871
865
860
857
856
857
856
852
851
849
851
856
855
852
855
859
861
863
867
867
864
856
851
849
860
866
860
852
850
849
844
846
851
856
852
851
847
841
848
860
865
852
856
875
860
859
864
862
863
863
862
866
867
867
866
870
868
863
861
862
860
855
851
844
851
863
872
876
871
856
847
847
847
853
859
862
860
860
860
862
861
860
857
857
860
862
859
855
848
844
846
854
860
862
861
863
867
867
873
880
885
886
888
888
888
884
880
875
871
874
876
874
876
875
887
1031
894
879
879
887
881
886
1029
1040
1039
1025
892
1024
891
888
886
886
880
872
871
871
868
865
858
860
873
872
867
859
851
846
846
847
841
846
851
856
865
871
887
892
881
867
864
864
864
862
865
868
865
865
865
862
860
859
858
862
859
860
864
865
867
870
868
867
859
856
856
856
856
851
846
845
840
832
824
817
817
821
828
833
846
884
1043
1057
1069
1089
1105
1122
1144
1306
1340
1368
1388
1539
1566
1599
1635
1805
1846
1870
1886
1886
1886
1886
1886
1886
1874
1836
1641
1565
1364
1299
1114
1055
873
824
774
597
560
524
368
345
344
355
368
379
523
543
560
591
626
788
804
807
820
831
838
839
839
844
847
847
845
846
847
843
835
828
828
828
825
827
832
833
835
829
828
827
828
834
837
838
835
835
835
838
838
836
835
835
832
832
834
833
828
823
822
813
814
832
857
888
886
874
867
860
860
860
860
860
858
851
849
849
855
859
856
860
871
878
879
880
875
871
867
860
860
864
876
882
871
863
860
860
871
886
891
889
889
888
889
889
884
883
880
880
886
892
895
1025
891
883
879
880
880
883
889
893
1028
1030
1031
1029
895
895
1031
1033
1031
1036
1035
1031
1030
1027
1031
1035
1035
1037
1038
1041
1044
1048
1048
1049
1047
1048
1053
1052
1047
1047
1047
1046
1043
1048
1068
1070
1075
1084
1075
1068
1064
1067
1067
1067
1068
1084
1092
1094
1089
1092
1095
1092
1095
1101
1099
1095
1095
1092
1095
1095
1099
1103
1103
1107
1110
1117
1116
1116
1117
1119
1116
1107
1100
1096
1096
1103
1106
1112
1112
1111
1107
1105
1107
1107
1107
1108
1112
1103
1091
1091
1094
1095
1089
1083
1076
1071
1068
1067
1068
1068
1068
1063
1059
1054
1048
1041
1034
1030
1027
895
889
883
877
878
886
887
877
869
863
855
852
852
848
847
848
844
832
824
817
814
807
799
798
792
786
781
783
783
788
792
792
787
785
783
776
769
768
771
790
797
788
776
768
768
768
770
775
775
768
772
772
768
629
768
772
778
779
781
782
780
777
775
774
772
774
775
777
780
782
777
778
781
787
790
792
792
794
796
792
792
799
798
797
796
798
803
803
801
799
803
809
812
812
822
823
819
819
817
817
819
819
820
825
832
828
828
824
819
821
830
849
859
847
836
838
838
835
834
835
838
836
835
835
838
841
846
846
844
844
847
849
848
846
847
851
852
852
851
852
851
847
845
843
839
839
844
851
849
848
851
857
867
871
862
856
851
847
841
839
835
835
844
860
880
881
876
868
864
863
862
862
862
865
866
867
865
863
862
867
875
876
871
867
865
862
860
859
856
856
856
855
856
856
856
868
871
867
867
870
867
866
862
862
858
856
860
864
864
864
864
867
876
878
878
873
871
870
867
856
860
864
865
861
856
853
856
859
860
857
857
860
860
856
859
864
864
861
861
861
860
860
858
856
859
868
867
867
867
864
863
865
868
873
873
871
871
871
870
870
867
864
860
865
880
880
867
860
857
854
851
851
864
880
883
882
883
877
872
869
863
860
859
857
856
857
858
870
872
869
867
866
870
871
871
871
871
871
873
876
875
867
865
862
860
851
847
849
854
860
855
863
883
883
876
880
876
871
872
871
870
868
867
870
868
866
864
865
866
867
867
866
867
871
878
878
876
873
871
871
873
876
872
865
860
851
847
862
883
886
882
875
867
882
883
875
867
864
864
860
856
859
868
870
867
871
888
888
880
873
869
869
865
867
870
871
864
862
873
879
876
873
871
875
876
880
884
888
891
1026
1031
1035
1036
1039
1039
1035
1038
1039
1039
1039
1036
1037
1039
1039
1038
1033
1031
1028
1029
1030
1027
894
894
893
894
894
889
884
881
879
876
872
867
866
870
869
870
876
877
875
882
889
889
888
882
879
875
871
874
873
876
875
871
871
867
864
867
871
876
878
878
880
881
883
883
886
883
880
876
871
865
865
864
859
856
856
864
867
867
864
864
862
860
852
846
837
827
829
836
841
844
854
864
878
1027
1054
1080
1102
1119
1139
1302
1350
1398
1545
1562
1592
1623
1654
1811
1843
1871
1886
1886
1886
1886
1886
1886
1886
1886
1848
1659
1590
1394
1329
1146
1090
1029
838
783
602
558
513
350
326
314
335
363
520
543
560
579
605
632
780
797
815
832
844
844
838
839
841
846
846
844
839
835
832
830
828
830
832
832
832
832
833
835
833
831
830
832
832
832
831
830
834
844
847
841
835
836
843
848
857
859
859
850
843
841
843
845
841
835
839
844
855
866
875
870
860
857
856
857
861
866
865
871
888
886
877
875
878
886
895
895
886
878
878
879
878
880
883
882
883
883
880
881
886
888
884
878
878
880
878
875
874
873
876
881
888
895
1024
1025
1025
894
1027
1031
1031
1030
1025
893
894
892
890
893
1027
1033
1033
1030
1028
1031
1036
1036
1035
1036
1039
1036
1033
1031
1027
1031
1044
1055
1065
1061
1055
1055
1059
1059
1055
1056
1060
1062
1062
1063
1070
1074
1078
1080
1080
1079
1080
1079
1080
1080
1081
1087
1086
1087
1087
1089
1095
1103
1105
1105
1103
1103
1103
1103
1105
1105
1105
1103
1105
1110
1113
1115
1111
1112
1115
1116
1113
1111
1112
1108
1105
1112
1116
1116
1118
1118
1112
1110
1107
1102
1100
1096
1097
1100
1095
1089
1086
1084
1084
1081
1080
1080
1075
1070
1063
1063
1065
1062
1054
1043
1037
1028
1024
1024
1031
1044
1044
1032
1024
892
878
869
862
860
859
854
849
838
825
824
821
819
820
819
817
814
816
814
812
809
807
801
792
787
784
783
787
798
799
786
775
770
772
780
775
774
777
779
776
772
774
771
638
768
772
775
774
769
771
772
774
775
772
771
775
779
782
783
783
785
785
781
780
777
772
772
775
775
780
782
786
789
793
796
795
795
793
797
804
807
799
797
797
802
806
812
809
801
797
804
807
807
810
812
816
811
807
807
813
824
830
828
830
827
827
830
830
827
831
835
832
834
835
832
832
832
832
831
835
847
855
851
844
840
835
835
845
849
843
841
841
844
846
847
851
849
848
844
841
844
847
852
851
852
855
856
862
860
860
859
859
864
865
860
857
864
857
851
850
848
847
854
863
865
860
857
858
860
870
880
884
883
873
871
870
868
871
880
883
875
867
859
856
860
866
867
857
854
857
859
860
860
857
855
853
857
860
860
867
873
877
875
868
864
862
863
864
864
859
854
852
852
848
841
850
856
855
861
872
878
876
871
867
864
865
870
871
868
862
860
860
856
859
858
862
866
871
871
872
873
871
868
868
871
875
871
864
862
858
854
864
871
868
864
865
864
865
873
876
880
881
881
876
871
864
861
861
859
856
853
852
867
876
876
879
875
876
876
866
863
867
870
867
866
865
864
870
876
873
870
868
870
876
880
880
875
867
871
871
878
877
880
876
871
870
865
860
859
865
863
862
864
867
871
874
875
874
873
876
880
881
881
875
870
868
871
875
877
878
876
874
871
871
871
877
886
885
880
871
871
871
876
877
873
873
876
880
876
873
876
872
871
872
871
875
880
886
883
880
875
868
869
874
880
880
881
883
884
881
879
883
879
867
864
864
865
862
865
873
878
881
888
883
878
879
878
873
873
877
883
879
871
862
859
860
864
861
862
865
867
865
862
860
862
867
870
870
864
864
857
857
870
878
875
875
877
879
888
895
891
882
876
873
871
871
871
871
871
873
881
882
886
884
884
886
888
892
892
892
895
1024
1028
1048
1046
1035
1030
1031
1035
1031
1038
1043
1042
1038
1034
1035
1038
1041
1038
1038
1033
1030
1027
1030
1036
1027
891
883
871
867
871
880
878
872
878
876
880
876
871
871
876
884
889
880
876
875
867
866
867
867
870
875
872
875
873
871
875
875
873
871
870
871
873
873
876
881
875
863
857
856
864
867
869
870
873
883
882
881
876
875
868
866
871
871
862
851
839
836
839
843
856
870
890
1037
1054
1072
1089
1104
1123
1142
1301
1337
1368
1403
1557
1585
1607
1631
1644
1792
1807
1819
1835
1847
1849
1846
1839
1827
1792
1599
1398
1328
1137
1076
893
839
790
610
568
527
364
340
327
331
338
358
377
526
546
571
603
630
774
792
806
823
841
847
855
865
870
865
861
864
857
860
870
871
867
860
852
849
852
854
852
845
850
850
849
847
846
845
848
845
846
847
854
857
856
859
858
856
856
865
860
860
857
856
854
854
857
858
864
864
857
860
857
859
860
864
865
871
879
883
885
880
875
871
871
873
878
876
876
876
881
883
887
884
883
883
883
884
883
880
878
879
881
883
886
884
883
876
876
881
884
893
1034
1030
892
892
892
895
1028
1039
1040
1031
895
892
895
890
888
1027
1030
1029
1025
1028
1027
1031
1038
1035
1037
1041
1039
1037
1036
1036
1039
1041
1042
1043
1044
1047
1054
1063
1060
1055
1054
1054
1055
1057
1060
1062
1063
1062
1060
1060
1065
1064
1063
1065
1072
1086
1089
1084
1085
1089
1087
1094
1094
1095
1095
1092
1095
1095
1097
1099
1102
1103
1101
1095
1097
1100
1100
1099
1097
1100
1102
1105
1115
1120
1118
1115
1114
1110
1107
1106
1103
1107
1103
1103
1100
1102
1105
1107
1107
1107
1104
1100
1096
1095
1091
1087
1087
1087
1082
1076
1078
1074
1075
1079
1075
1067
1063
1059
1063
1059
1055
1048
1039
1032
1028
1025
894
892
888
880
875
871
869
867
865
860
855
847
839
839
837
832
830
820
813
808
803
798
793
790
798
803
799
796
793
793
795
787
784
785
785
782
779
775
775
768
638
638
638
635
635
638
768
638
632
632
638
771
777
775
773
775
772
769
779
779
778
781
787
787
779
773
768
636
636
768
771
783
797
800
795
788
787
787
787
790
792
793
797
792
788
791
798
803
807
806
806
804
803
803
804
816
832
833
828
825
820
824
822
825
825
828
828
828
826
827
828
832
830
832
836
836
835
836
838
838
839
839
835
832
827
828
829
833
836
835
836
840
844
843
849
849
846
840
839
841
844
844
847
844
844
841
839
844
846
849
849
851
851
852
854
851
848
852
857
853
850
846
847
847
843
832
832
834
832
851
863
862
860
857
857
864
864
862
859
857
856
855
854
851
851
854
855
856
856
848
847
851
856
856
856
852
851
854
852
851
851
855
849
850
851
856
860
867
867
860
860
865
867
860
860
858
862
863
861
860
856
852
852
849
848
846
839
839
844
846
847
846
850
854
856
855
855
857
853
859
864
867
860
851
851
846
843
844
852
859
857
856
851
852
851
854
857
860
860
857
857
860
857
849
847
844
844
843
841
839
844
847
846
847
851
856
864
867
867
860
862
861
862
860
856
851
852
857
856
853
854
856
856
857
860
862
865
867
867
871
868
863
862
864
864
866
862
857
855
852
847
854
862
876
884
881
872
867
868
867
867
864
864
867
868
864
865
870
871
871
865
862
863
868
871
871
870
871
868
865
856
856
859
860
861
860
860
860
865
867
866
867
869
873
875
875
877
875
868
865
863
864
862
860
860
862
861
860
864
871
875
880
880
877
871
871
867
862
859
857
856
859
862
867
868
864
857
855
855
857
856
862
862
865
873
876
872
870
868
865
863
862
860
860
861
859
860
871
875
875
878
880
880
881
883
881
880
882
880
880
888
1037
1048
1033
1024
895
1025
1031
1036
1044
1042
1039
1045
1049
1040
1031
1029
1024
895
1024
1027
1030
1032
895
891
892
890
888
886
883
885
886
883
882
876
871
867
862
864
870
877
887
887
886
891
887
883
878
876
879
884
886
883
882
884
888
886
884
887
886
882
880
879
876
878
880
878
883
884
883
879
878
875
890
1033
1031
883
872
879
883
891
886
871
862
857
854
851
851
856
863
873
892
1041
1062
1082
1096
1118
1136
1284
1310
1345
1384
1536
1567
1599
1622
1644
1796
1825
1848
1861
1875
1886
1886
1886
1886
1886
1886
1830
1616
1536
1339
1150
1092
1043
869
828
787
615
575
541
516
377
376
379
522
545
568
589
605
624
772
793
811
833
851
860
867
873
879
880
878
876
880
880
880
868
862
859
854
854
847
857
863
860
851
849
852
852
847
847
846
850
864
862
857
858
867
886
883
867
862
863
871
878
877
873
880
884
888
1025
1029
889
880
881
883
885
884
881
883
883
886
885
891
889
883
891
892
888
886
883
879
877
881
886
888
893
1027
895
895
1031
1039
1038
1031
1030
1031
1031
1027
1024
1025
1029
1035
1039
1041
1043
1039
1031
1027
1027
1025
1030
1031
1036
1049
1057
1047
1035
1029
1030
1034
1048
1055
1055
1044
1043
1044
1046
1048
1052
1058
1059
1051
1051
1054
1053
1055
1060
1072
1075
1071
1063
1062
1063
1079
1087
1084
1075
1072
1075
1078
1079
1069
1064
1063
1060
1057
1059
1077
1100
1103
1100
1098
1093
1093
1098
1100
1102
1106
1112
1120
1113
1111
1113
1119
1116
1112
1111
1118
1126
1132
1134
1132
1132
1133
1135
1132
1131
1132
1128
1123
1119
1115
1116
1112
1103
1103
1108
1119
1131
1136
1132
1127
1128
1128
1120
1115
1107
1102
1094
1087
1084
1096
1103
1100
1098
1095
1093
1095
1096
1091
1081
1073
1072
1070
1065
1063
1054
1057
1055
1048
1034
1026
895
894
889
880
870
864
862
856
856
860
864
865
859
852
844
844
835
823
812
806
809
814
816
819
823
819
812
803
811
825
819
812
806
801
796
796
793
785
780
787
791
789
792
787
787
790
789
787
782
785
796
790
780
780
785
791
800
804
796
792
787
784
783
785
783
785
790
790
796
803
803
807
807
803
799
803
811
823
819
806
805
805
803
799
798
803
817
821
825
828
824
819
819
818
814
816
825
832
833
833
834
835
832
828
828
825
835
835
835
839
847
850
851
852
849
847
844
847
847
844
840
836
834
830
836
839
847
865
880
879
871
859
851
857
851
855
868
867
860
859
861
860
862
863
860
860
865
878
871
859
860
860
861
859
858
863
862
864
870
867
860
862
870
868
870
867
866
864
862
860
859
856
857
867
876
876
872
867
867
868
867
864
862
858
866
871
871
868
866
867
867
868
864
867
865
857
851
860
871
877
887
889
883
878
881
881
880
876
873
868
865
871
870
867
865
862
858
858
859
863
864
864
860
860
859
863
871
882
882
871
867
868
872
878
883
881
879
879
881
883
876
870
883
887
872
865
865
864
859
862
860
864
870
883
888
880
876
879
888
892
883
878
873
871
869
874
882
883
888
889
886
884
883
880
880
883
883
879
878
878
876
872
871
873
876
876
881
881
879
877
875
876
883
887
881
878
875
875
878
878
875
876
875
875
876
878
880
880
882
887
888
886
883
880
876
872
873
872
876
881
883
883
884
886
878
880
878
878
884
894
1031
1039
1047
1043
1031
1025
893
888
886
887
883
877
875
873
876
876
878
883
895
892
886
880
888
1031
1052
1060
1047
1031
894
894
889
895
1028
895
891
891
891
892
1025
1024
1025
895
894
892
892
894
891
888
883
886
886
887
888
888
892
893
889
891
892
1024
1027
1027
1027
1024
1025
1027
1030
1027
1026
1025
1027
1027
1026
1024
893
894
894
1026
1027
1027
1024
1024
1025
1027
1024
1025
1024
892
888
882
880
881
880
880
878
883
886
887
882
883
887
889
1031
1041
1050
1044
1035
1026
891
889
886
889
894
1027
895
891
891
894
894
895
1027
1033
1043
1043
1042
1043
1043
1043
1039
1038
1039
1031
1037
1055
1060
1055
1053
1057
1065
1069
1067
1062
1059
1059
1055
1051
1047
1043
1037
1031
894
892
892
891
888
888
895
1031
1026
889
892
1024
888
1025
1031
1033
1030
895
889
892
892
886
876
873
875
876
874
883
891
892
892
892
892
889
889
891
888
884
886
883
880
877
872
873
880
881
883
884
884
878
874
875
872
871
876
875
871
871
875
867
852
846
840
838
841
855
871
888
1030
1046
1066
1083
1100
1116
1128
1145
1299
1332
1368
1400
1559
1587
1615
1644
1800
1845
1868
1885
1886
1886
1886
1886
1886
1886
1886
1846
1656
1584
1382
1323
1141
1081
895
835
775
600
563
524
365
349
350
355
372
519
536
553
573
598
624
772
786
798
799
814
838
841
835
835
836
838
838
833
827
822
821
823
822
816
804
798
803
817
825
824
822
819
817
819
824
823
824
828
833
839
838
835
834
833
830
825
825
827
833
835
835
839
840
836
835
838
839
842
846
850
849
846
844
844
844
843
841
847
849
851
857
856
854
855
857
860
861
856
856
859
862
861
860
861
861
860
855
852
854
856
859
857
862
884
888
880
875
875
876
867
865
868
871
876
879
876
876
873
874
879
883
888
892
894
895
1024
1027
1030
1026
894
895
895
1025
1025
895
1025
1026
1027
1031
1031
1030
1031
1033
1036
1039
1038
1040
1042
1039
1037
1041
1053
1059
1063
1059
1053
1048
1051
1055
1063
1067
1068
1068
1067
1068
1072
1075
1080
1080
1086
1087
1091
1088
1087
1086
1084
1084
1087
1095
1095
1099
1099
1099
1100
1102
1104
1105
1107
1107
1107
1107
1111
1112
1105
1098
1092
1095
1095
1102
1107
1103
1103
1103
1105
1104
1103
1102
1100
1094
1087
1089
1089
1085
1080
1083
1080
1071
1065
1063
1061
1060
1057
1055
1059
1063
1052
1043
1039
1037
1035
1036
1042
1038
1027
894
888
880
873
869
867
864
865
864
852
845
844
839
836
829
824
819
816
806
806
807
805
806
802
799
793
790
787
787
782
777
775
775
777
775
775
772
638
636
638
636
632
627
624
625
624
628
768
771
768
771
768
768
636
768
772
639
769
779
780
789
784
769
768
768
632
630
630
636
772
783
788
788
787
783
783
783
787
785
782
780
779
783
787
788
793
791
787
787
792
796
799
807
810
809
812
807
803
801
805
814
812
808
807
810
814
817
817
816
819
822
822
820
819
818
819
819
818
816
817
820
819
819
823
824
826
828
833
834
835
832
828
828
829
833
836
834
831
832
832
828
827
835
838
833
828
831
834
835
836
835
841
839
838
835
847
855
851
847
860
867
860
851
847
848
847
847
847
850
851
846
847
850
854
854
851
851
849
850
849
844
835
833
828
832
838
848
852
851
852
847
844
845
849
848
847
863
881
875
865
856
847
847
847
849
851
851
851
860
867
867
860
860
868
876
883
887
880
878
871
871
873
873
869
863
864
871
875
882
1025
1027
892
891
891
892
888
883
879
876
876
871
862
856
860
871
884
888
885
883
883
886
892
1031
1036
1025
888
884
879
876
880
881
881
881
871
876
882
887
888
885
884
886
888
888
889
888
884
884
879
874
876
877
876
880
876
870
870
873
880
880
872
870
873
889
892
892
894
886
880
875
879
880
872
870
871
873
880
883
880
877
877
878
887
888
889
888
888
880
875
873
871
872
868
868
868
869
867
867
865
863
872
880
882
885
883
883
884
885
887
882
871
867
863
865
871
880
886
886
886
886
881
875
871
870
874
883
888
891
882
880
876
871
865
862
857
860
865
873
874
876
878
878
883
884
883
883
881
876
869
861
859
864
869
881
885
880
879
878
881
887
888
883
884
883
883
875
873
875
872
876
876
871
868
868
867
863
871
878
876
875
873
873
870
869
867
862
860
864
862
855
848
845
859
871
881
884
881
878
874
876
876
875
876
875
876
878
883
889
1025
889
886
889
892
894
894
891
888
892
894
895
1027
1027
1041
1039
1038
1039
1039
1039
1036
1030
1031
1030
1025
889
887
888
891
892
892
892
888
883
879
876
875
878
876
880
882
880
880
875
871
870
871
869
876
878
879
882
880
873
873
876
873
870
864
867
867
871
871
867
864
864
864
867
871
878
873
875
876
878
878
871
871
865
862
864
872
871
867
867
862
864
864
861
849
839
836
837
841
850
857
865
868
871
881
892
1042
1072
1094
1108
1123
1150
1308
1334
1364
1400
1560
1598
1628
1648
1663
1807
1828
1836
1843
1854
1854
1853
1848
1823
1650
1577
1376
1308
1120
1067
887
833
783
608
561
524
358
327
311
310
319
345
369
524
550
574
593
619
638
784
808
824
839
854
864
864
868
861
857
852
851
849
844
844
844
839
834
834
832
834
832
824
832
847
851
852
846
847
846
844
844
849
851
851
852
850
847
841
841
839
847
855
854
857
857
860
857
856
851
852
851
847
844
841
846
852
853
855
856
859
857
860
860
862
870
871
867
861
859
855
863
867
867
868
871
867
867
871
871
873
873
871
871
873
876
880
879
878
879
879
873
871
871
867
867
868
873
880
888
889
894
895
1025
894
895
1025
1027
1028
1025
1024
892
892
894
895
894
894
889
887
886
886
895
1033
1037
1037
1036
1032
1030
1032
1037
1033
1031
1039
1044
1044
1042
1041
1047
1051
1052
1049
1054
1058
1059
1063
1070
1073
1071
1069
1073
1080
1076
1070
1063
1059
1059
1059
1062
1064
1072
1075
1083
1095
1107
1103
1099
1095
1092
1091
1091
1094
1095
1098
1095
1092
1095
1095
1096
1093
1095
1098
1100
1102
1097
1092
1090
1092
1094
1094
1097
1099
1097
1098
1095
1096
1087
1080
1072
1068
1065
1064
1070
1068
1063
1061
1062
1060
1055
1051
1048
1049
1047
1042
1033
1027
893
888
880
876
876
873
873
865
860
857
855
857
852
844
833
825
820
824
823
815
807
798
792
788
783
780
783
788
785
782
780
776
771
636
633
638
638
636
636
630
632
633
627
622
618
616
624
629
630
627
625
627
633
636
633
632
636
632
629
629
628
627
627
626
627
636
768
637
637
638
637
769
768
768
636
635
632
627
630
631
636
769
769
639
638
769
775
777
780
787
787
787
791
799
799
793
787
784
788
790
792
792
795
795
792
791
792
794
798
803
809
811
805
805
804
803
801
803
803
806
807
808
809
809
807
811
814
816
817
819
827
828
827
827
828
824
825
824
826
825
820
820
828
832
832
831
831
834
833
839
841
846
839
836
833
833
834
829
828
828
833
840
841
841
841
836
830
829
830
832
835
839
843
841
839
836
835
833
831
838
838
832
832
838
843
844
844
846
852
856
852
843
841
839
839
840
842
841
839
838
835
835
834
832
834
839
841
843
846
847
846
844
847
843
841
845
846
843
845
839
835
830
830
833
835
835
839
845
847
847
846
846
844
841
841
838
838
838
833
832
836
839
841
841
841
844
847
844
844
841
841
839
837
843
851
857
857
855
847
846
841
843
843
838
835
841
849
854
856
858
855
851
849
847
844
844
847
851
851
848
845
842
847
849
847
843
839
843
847
846
846
847
849
855
864
864
859
851
849
847
847
846
843
841
847
851
851
850
846
845
844
847
857
857
849
844
844
841
840
843
845
844
842
845
844
846
847
848
846
844
847
841
840
836
838
848
864
871
870
863
854
849
847
853
856
860
859
854
844
841
846
849
849
847
846
844
847
852
848
847
841
842
847
851
851
853
855
854
857
855
849
846
846
852
856
862
862
856
851
852
856
860
867
878
878
878
878
879
877
879
880
881
881
883
881
883
881
880
880
880
877
872
869
867
862
860
858
857
859
860
860
860
862
860
856
855
856
856
851
848
850
855
853
849
846
848
848
846
847
847
844
839
834
835
841
846
848
847
846
844
843
847
851
850
851
855
857
862
862
862
860
857
856
854
852
851
851
854
856
851
847
844
840
841
852
857
861
853
843
835
827
822
826
830
832
832
839
851
869
892
1048
1074
1095
1116
1142
1295
1318
1345
1379
1539
1567
1599
1629
1656
1808
1828
1840
1855
1865
1868
1869
1864
1851
1818
1636
1560
1364
1300
1113
1055
876
824
775
600
556
515
356
335
326
324
342
364
517
540
561
585
608
636
781
798
811
820
827
836
839
841
840
838
838
836
832
832
832
831
828
835
835
833
832
834
831
828
830
833
834
832
831
839
842
839
838
844
847
850
851
852
851
848
847
847
844
845
847
847
847
847
846
844
847
851
852
852
852
855
854
851
851
853
851
854
855
859
867
878
873
865
864
860
860
862
862
871
875
876
876
879
881
882
876
876
876
876
880
879
874
871
871
871
875
880
877
876
876
877
877
880
883
886
888
890
889
889
891
889
888
884
885
888
891
890
888
889
888
891
1025
1027
1028
1031
1031
1039
1051
1049
1048
1047
1042
1034
1030
1033
1042
1044
1043
1043
1042
1041
1043
1044
1053
1055
1062
1067
1071
1072
1072
1070
1069
1072
1078
1080
1079
1073
1070
1076
1081
1089
1096
1100
1099
1092
1095
1095
1102
1105
1105
1102
1103
1103
1107
1112
1115
1112
1107
1104
1103
1106
1111
1111
1116
1118
1116
1113
1112
1111
1106
1100
1095
1102
1102
1101
1101
1095
1091
1087
1092
1094
1096
1097
1091
1089
1087
1091
1089
1087
1084
1081
1074
1065
1059
1052
1048
1040
1033
1030
1025
892
883
883
884
881
882
880
876
876
870
857
852
848
846
839
830
824
824
820
817
811
807
806
803
804
804
799
796
792
788
783
780
775
772
777
774
772
770
777
782
785
781
776
775
775
775
776
775
769
638
638
633
632
632
632
631
633
632
636
636
633
633
636
636
636
633
631
630
629
630
769
777
777
775
775
769
768
768
773
783
786
786
783
785
791
793
799
799
799
801
799
795
796
796
797
797
796
798
798
798
799
802
801
803
803
804
807
812
815
813
812
813
811
807
812
814
816
824
827
827
827
829
825
827
832
836
841
843
838
838
835
830
832
835
835
835
834
835
838
839
841
845
847
849
848
845
845
844
839
839
838
834
830
830
828
835
834
836
842
848
860
863
863
859
854
854
856
851
851
851
847
850
860
860
851
848
849
851
847
848
849
849
848
847
849
848
851
855
857
857
859
857
854
852
851
847
846
848
854
856
859
860
860
860
860
858
857
851
854
852
852
856
862
864
864
862
854
848
847
848
851
851
856
856
854
851
849