0.002:25
0.002:25
0.002:26
0.002:26
0.002:26
0.002:26
0.002:27
0.002:27
0.002:26
0.003:25
0.003:25
0.003:26
0.003:27
0.003:26
0.003:26
0.003:25
0.003:25
0.003:26
0.003:26
0.003:25
0.003:26
0.003:25
0.003:26
0.003:26
0.003:26
0.003:25
0.004:26
0.004:26
0.004:26
0.004:26
0.004:26
0.004:26
0.004:25
0.004:25
0.004:26
0.004:26
0.004:26
0.004:970
0.004:969
0.004:969
0.004:969
0.004:969
0.005:969
0.005:970
0.005:970
0.005:970
0.005:969
0.005:971
0.005:970
0.005:970
0.005:969
0.005:970
0.005:969
0.005:970
0.005:970
0.006:970
0.006:970
0.006:969
0.006:969
0.006:970
0.006:969
0.006:969
0.006:969
0.006:969
0.006:970
0.006:969
0.006:969
0.006:969
0.006:969
0.007:969
0.007:969
0.007:970
0.007:969
0.007:969
0.007:969
0.007:970
0.007:970
0.007:969
0.007:970
0.007:968
0.007:970
0.007:969
0.007:969
0.008:969
0.008:970
0.008:970
0.008:969
0.008:970
0.008:969
0.008:970
0.008:970
0.008:969
0.008:969
0.008:969
0.008:969
0.009:969
0.009:970
0.009:970
0.009:969
0.009:969
0.009:969
0.009:970
0.009:970
0.009:970
0.009:970
0.009:971
0.009:970
0.009:970
0.009:970
0.010:970
0.010:970
0.010:970
0.010:970
0.010:970
0.010:970
0.010:970
0.010:969
0.010:970
0.010:969
0.010:969
0.010:969
0.010:969
0.011:969
0.011:969
0.011:969
0.011:970
0.011:971
0.011:971
0.011:969
0.011:969
0.011:969
0.011:969
0.011:970
0.011:970
0.012:968
0.012:970
0.012:968
0.012:968
0.012:970
0.012:970
0.012:970
0.012:970
0.012:969
0.012:970
0.013:969
0.013:970
0.013:969
0.013:969
0.013:969
0.013:970
0.013:969
0.013:970
0.013:970
0.013:969
0.013:969
0.014:970
0.014:969
0.014:970
0.014:969
0.014:970
0.014:970
0.014:969
0.014:969
0.014:970
0.014:969
0.014:970
0.015:970
0.015:969
0.015:970
0.015:969
0.015:969
0.015:969
0.015:969
0.015:969
0.015:969
0.015:969
0.016:969
0.016:969
0.016:969
0.016:969
0.016:970
0.016:969
0.016:969
0.016:970
0.016:969
0.016:970
0.016:969
0.016:969
0.017:969
0.017:970
0.017:970
0.017:970
0.017:970
0.017:970
0.017:969
0.017:969
0.017:970
0.017:970
0.017:970
0.017:970
0.017:969
0.018:970
0.018:969
0.018:969
0.018:969
0.018:970
0.018:971
0.018:969
0.018:969
0.018:969
0.018:970
0.018:969
0.018:970
0.019:970
0.019:970
0.019:970
0.019:970
0.019:970
0.019:971
0.019:969
0.019:969
0.019:969
0.019:970
0.019:970
0.019:969
0.020:970
0.020:969
0.020:969
0.020:969
0.020:969
0.020:969
0.020:970
0.020:969
0.020:969
0.020:969
0.020:970
0.020:969
0.021:969
0.021:970
0.021:970
0.021:971
0.021:970
0.021:969
0.021:969
0.021:968
0.021:969
0.021:969
0.021:969
0.021:970
0.021:969
0.022:970
0.022:970
0.022:969
0.022:970
0.022:969
0.022:969
0.022:969
0.022:969
0.022:969
0.022:969
0.022:969
0.022:969
0.023:969
0.023:970
0.023:969
0.023:970
0.023:969
0.023:969
0.023:969
0.023:969
0.023:969
0.023:969
0.023:970
0.023:971
0.023:969
0.024:969
0.024:970
0.024:970
0.024:970
0.024:970
0.024:969
0.024:969
0.024:970
0.024:970
0.024:969
0.024:969
0.024:970
0.025:969
0.025:969
0.025:969
0.025:969
0.025:970
0.025:971
0.025:969
0.025:970
0.025:970
0.025:970
0.025:969
0.025:969
0.026:968
0.026:969
0.026:969
0.026:970
0.026:970
0.026:970
0.026:969
0.026:970
0.026:970
0.026:970
0.026:969
0.026:969
0.026:969
0.027:969
0.027:970
0.027:970
0.027:970
0.027:971
0.027:970
0.027:970
0.027:969
0.027:971
0.027:969
0.027:971
0.027:970
0.027:970
0.028:969
0.028:969
0.028:969
0.028:970
0.028:970
0.028:969
0.028:970
0.028:969
0.028:969
0.028:970
0.028:969
0.028:969
0.028:970
0.029:970
0.029:969
0.029:970
0.029:969
0.029:970
0.029:969
0.029:970
0.029:969
0.029:969
0.029:970
0.029:969
0.030:969
0.030:969
0.030:969
0.030:970
0.030:969
0.030:969
0.030:970
0.030:970
0.030:970
0.030:968
0.030:970
0.031:970
0.031:969
0.031:970
0.031:970
0.031:968
0.031:970
0.031:971
0.031:971
0.031:970
0.031:968
0.032:969
0.032:972
0.032:969
0.032:969
0.032:971
0.032:969
0.032:969
0.032:970
0.032:970
0.032:969
0.032:969
0.032:969
0.033:969
0.033:970
0.033:970
0.033:968
0.033:970
0.033:971
0.033:969
0.033:969
0.033:969
0.033:970
0.033:970
0.033:969
0.034:971
0.034:969
0.034:969
0.034:970
0.034:969
0.034:970
0.034:969
0.034:969
0.034:969
0.034:969
0.034:971
0.035:970
0.035:970
0.035:970
0.035:970
0.035:970
0.035:970
0.035:970
0.035:969
0.035:971
0.035:970
0.035:969
0.035:970
0.036:971
0.036:970
0.036:971
0.036:970
0.036:969
0.036:969
0.036:970
0.036:969
0.036:969
0.036:969
0.036:969
0.036:970
0.037:970
0.037:969
0.037:971
0.037:969
0.037:969
0.037:970
0.037:969
0.037:970
0.037:970
0.037:970
0.037:970
0.038:970
0.038:969
0.038:969
0.038:969
0.038:969
0.038:969
0.038:969
0.038:969
0.038:970
0.038:969
0.038:970
0.038:970
0.039:970
0.039:970
0.039:970
0.039:969
0.039:969
0.039:970
0.039:969
0.039:969
0.039:969
0.039:970
0.039:970
0.039:970
0.040:970
0.040:970
0.040:969
0.040:968
0.040:970
0.040:970
0.040:970
0.040:970
0.040:969
0.040:970
0.040:969
0.040:971
0.040:972
0.041:969
0.041:970
0.041:969
0.041:970
0.041:970
0.041:970
0.041:970
0.041:969
0.041:969
0.041:970
0.041:970
0.041:969
0.042:970
0.042:970
0.042:969
0.042:969
0.042:970
0.042:969
0.042:969
0.042:969
0.042:970
0.042:970
0.042:970
0.042:968
0.043:970
0.043:970
0.043:970
0.043:969
0.043:970
0.043:970
0.043:970
0.043:969
0.043:970
0.043:970
0.043:969
0.043:969
0.043:969
0.044:970
0.044:970
0.044:969
0.044:970
0.044:968
0.044:969
0.044:968
0.044:969
0.044:970
0.044:970
0.044:970
0.044:968
0.045:969
0.045:970
0.045:970
0.045:970
0.045:970
0.045:969
0.045:969
0.045:970
0.045:969
0.045:969
0.046:968
0.046:970
0.046:970
0.046:970
0.046:970
0.046:968
0.046:970
0.046:969
0.046:970
0.047:970
0.047:971
0.047:971
0.047:970
0.047:969
0.047:971
0.047:969
0.047:970
0.047:970
0.047:969
0.047:970
0.048:969
0.048:970
0.048:969
0.048:969
0.048:972
0.048:969
0.048:970
0.048:969
0.048:970
0.048:970
0.048:969
0.049:970
0.049:970
0.049:970
0.049:970
0.049:970
0.049:969
0.049:969
0.049:970
0.049:969
0.049:970
0.050:969
0.050:970
0.050:969
0.050:970
0.050:969
0.050:969
0.050:971
0.050:970
0.050:969
0.050:970
0.050:970
0.051:970
0.051:969
0.051:970
0.051:970
0.051:970
0.051:969
0.051:970
0.051:968
0.051:971
0.051:969
0.051:971
0.052:970
0.052:971
0.052:970
0.052:970
0.052:970
0.052:970
0.052:969
0.052:970
0.052:970
0.052:970
0.052:970
0.052:970
0.053:970
0.053:970
0.053:970
0.053:969
0.053:970
0.053:970
0.053:969
0.053:970
0.053:970
0.053:969
0.053:969
0.053:970
0.054:970
0.054:970
0.054:970
0.054:970
0.054:969
0.054:969
0.054:968
0.054:969
0.054:970
0.054:969
0.054:969
0.054:968
0.055:969
0.055:968
0.055:970
0.055:969
0.055:968
0.055:969
0.055:971
0.055:969
0.055:969
0.055:969
0.055:969
0.055:969
0.056:969
0.056:970
0.056:970
0.056:970
0.056:969
0.056:969
0.056:970
0.056:970
0.056:969
0.056:969
0.056:968
0.057:969
0.057:970
0.057:969
0.057:969
0.057:969
0.057:969
0.057:969
0.057:970
0.057:969
0.057:969
0.057:969
0.057:969
0.058:970
0.058:969
0.058:970
0.058:969
0.058:970
0.058:970
0.058:970
0.058:970
0.058:968
0.058:970
0.058:970
0.058:970
0.059:969
0.059:969
0.059:969
0.059:969
0.059:970
0.059:970
0.059:970
0.059:969
0.059:969
0.059:969
0.059:969
0.059:970
0.060:969
0.060:969
0.060:970
0.060:969
0.060:970
0.060:969
0.060:970
0.060:970
0.060:969
0.060:969
0.060:970
0.061:969
0.061:969
0.061:970
0.061:969
0.061:970
0.061:968
0.061:969
0.061:970
0.061:969
0.061:970
0.061:970
0.061:970
0.062:970
0.062:970
0.062:969
0.062:970
0.062:970
0.062:970
0.062:969
0.062:970
0.062:970
0.062:970
0.062:970
0.063:970
0.063:969
0.063:969
0.063:969
0.063:970
0.063:970
0.063:969
0.063:970
0.063:969
0.063:968
0.063:971
0.063:970
0.064:970
0.064:970
0.064:969
0.064:970
0.064:969
0.064:969
0.064:969
0.064:969
0.064:969
0.064:970
0.064:969
0.065:969
0.065:969
0.065:970
0.065:969
0.065:969
0.065:970
0.065:969
0.065:970
0.065:969
0.065:970
0.065:970
0.065:970
0.066:970
0.066:969
0.066:968
0.066:970
0.066:970
0.066:969
0.066:970
0.066:969
0.066:970
0.066:970
0.066:969
0.066:971
0.067:969
0.067:969
0.067:970
0.067:969
0.067:969
0.067:969
0.067:969
0.067:969
0.067:969
0.067:970
0.067:969
0.067:969
0.068:969
0.068:969
0.068:970
0.068:970
0.068:970
0.068:969
0.068:970
0.068:971
0.068:970
0.068:969
0.068:970
0.068:969
0.069:969
0.069:970
0.069:970
0.069:970
0.069:972
0.069:971
0.069:971
0.069:970
0.069:970
0.069:970
0.069:969
0.069:971
0.070:970
0.070:971
0.070:970
0.070:969
0.070:970
0.070:970
0.070:969
0.070:971
0.070:970
0.070:971
0.070:970
0.070:970
0.071:971
0.071:970
0.071:969
0.071:970
0.071:971
0.071:968
0.071:970
0.071:969
0.071:970
0.071:969
0.071:971
0.072:970
0.072:970
0.072:969
0.072:969
0.072:969
0.072:970
0.072:969
0.072:969
0.072:969
0.072:970
0.072:970
0.072:970
0.073:970
0.073:970
0.073:970
0.073:970
0.073:969
0.073:972
0.073:968
0.073:970
0.073:969
0.073:968
0.073:969
0.073:970
0.074:969
0.074:969
0.074:969
0.074:969
0.074:970
0.074:970
0.074:969
0.074:970
0.074:970
0.074:970
0.074:970
0.074:970
0.075:969
0.075:970
0.075:970
0.075:970
0.075:968
0.075:969
0.075:970
0.075:970
0.075:969
0.075:969
0.075:970
0.075:969
0.076:970
0.076:970
0.076:969
0.076:970
0.076:970
0.076:969
0.076:971
0.076:970
0.076:969
0.076:969
0.076:969
0.076:970
0.077:969
0.077:969
0.077:969
0.077:970
0.077:969
0.077:969
0.077:969
0.077:969
0.077:969
0.077:969
0.077:969
0.077:970
0.078:968
0.078:968
0.078:970
0.078:969
0.078:969
0.078:969
0.078:969
0.078:970
0.078:969
0.078:969
0.078:970
0.078:970
0.079:969
0.079:969
0.079:970
0.079:969
0.079:970
0.079:969
0.079:970
0.079:970
0.079:969
0.079:970
0.079:970
0.080:970
0.080:969
0.080:969
0.080:971
0.080:969
0.080:970
0.080:969
0.080:969
0.080:969
0.080:969
0.080:969
0.080:969
0.081:969
0.081:969
0.081:971
0.081:969
0.081:969
0.081:970
0.081:970
0.081:970
0.081:969
0.081:970
0.081:969
0.081:970
0.082:970
0.082:969
0.082:969
0.082:971
0.082:969
0.082:970
0.082:971
0.082:970
0.082:969
0.082:969
0.082:969
0.082:970
0.083:969
0.083:969
0.083:969
0.083:971
0.083:972
0.083:969
0.083:970
0.083:970
0.083:970
0.083:971
0.083:969
0.083:970
0.084:970
0.084:969
0.084:970
0.084:969
0.084:970
0.084:970
0.084:969
0.084:969
0.084:969
0.084:969
0.084:969
0.084:968
0.084:970
0.085:969
0.085:969
0.085:969
0.085:969
0.085:969
0.085:969
0.085:969
0.085:970
0.085:970
0.085:969
0.085:969
0.085:969
0.085:970
0.086:971
0.086:970
0.086:970
0.086:970
0.086:970
0.086:970
0.086:969
0.086:971
0.086:969
0.086:970
0.086:969
0.086:969
0.087:969
0.087:969
0.087:970
0.087:970
0.087:969
0.087:969
0.087:969
0.087:970
0.087:970
0.087:969
0.087:969
0.087:970
0.087:970
0.088:971
0.088:969
0.088:970
0.088:970
0.088:970
0.088:970
0.088:969
0.088:970
0.088:969
0.088:971
0.088:969
0.088:969
0.089:970
0.089:970
0.089:970
0.089:969
0.089:968
0.089:970
0.089:969
0.089:970
0.089:970
0.089:969
0.089:970
0.089:969
0.089:969
0.090:970
0.090:969
0.090:969
0.090:970
0.090:971
0.090:969
0.090:968
0.090:969
0.090:969
0.090:969
0.090:969
0.090:970
0.091:970
0.091:969
0.091:970
0.091:969
0.091:970
0.091:969
0.091:969
0.091:970
0.091:969
0.091:969
0.091:969
0.091:969
0.091:970
0.092:969
0.092:970
0.092:969
0.092:969
0.092:970
0.092:969
0.092:969
0.092:970
0.092:970
0.092:970
0.092:970
0.092:970
0.092:970
0.093:970
0.093:970
0.093:970
0.093:969
0.093:969
0.093:970
0.093:970
0.093:968
0.093:970
0.093:969
0.093:969
0.093:970
0.093:969
0.094:969
0.094:970
0.094:969
0.094:970
0.094:969
0.094:969
0.094:969
0.094:969
0.094:969
0.094:970
0.094:971
0.094:970
0.094:971
0.094:970
0.095:970
0.095:970
0.095:970
0.095:970
0.095:969
0.095:968
0.095:969
0.095:969
0.095:970
0.095:969
0.095:969
0.095:970
0.095:969
0.096:969
0.096:969
0.096:969
0.096:970
0.096:969
0.096:969
0.096:970
0.096:969
0.096:969
0.096:970
0.096:970
0.096:969
0.096:970
0.097:970
0.097:970
0.097:970
0.097:970
0.097:970
0.097:970
0.097:969
0.097:970
0.097:970
0.097:969
0.097:970
0.097:970
0.097:969
0.098:969
0.098:970
0.098:970
0.098:969
0.098:969
0.098:969
0.098:970
0.098:970
0.098:969
0.098:970
0.098:969
0.098:969
0.098:969
0.099:970
0.099:970
0.099:969
0.099:971
0.099:969
0.099:969
0.099:970
0.099:971
0.099:969
0.099:969
0.099:970
0.099:970
0.099:969
0.100:971
0.100:970
0.100:969
0.100:970
0.100:970
0.100:969
0.100:970
0.100:969
0.100:969
0.100:970
0.100:971
0.100:970
0.100:970
0.100:970
0.101:969
0.101:970
0.101:970
0.101:970
0.101:970
0.101:970
0.101:970
0.101:970
0.101:969
0.101:969
0.101:969
0.101:970
0.101:968
0.101:970
0.102:970
0.102:971
0.102:969
0.102:969
0.102:969
0.102:970
0.102:970
0.102:969
0.102:969
0.102:969
0.102:969
0.102:970
0.102:969
0.102:970
0.103:970
0.103:970
0.103:968
0.103:970
0.103:970
0.103:968
0.103:968
0.103:970
0.103:969
0.103:969
0.103:969
0.103:969
0.103:970
0.103:970
0.104:970
0.104:969
0.104:969
0.104:969
0.104:969
0.104:970
0.104:970
0.104:970
0.104:970
0.104:969
0.104:970
0.104:970
0.104:970
0.105:970
0.105:969
0.105:970
0.105:970
0.105:970
0.105:970
0.105:969
0.105:969
0.105:969
0.105:971
0.105:970
0.105:969
0.105:970
0.106:970
0.106:970
0.106:970
0.106:969
0.106:969
0.106:969
0.106:970
0.106:969
0.106:969
0.106:969
0.106:969
0.106:970
0.106:970
0.107:970
0.107:970
0.107:969
0.107:970
0.107:970
0.107:970
0.107:969
0.107:970
0.107:970
0.107:970
0.107:970
0.107:969
0.107:970
0.107:970
0.108:969
0.108:969
0.108:969
0.108:969
0.108:969
0.108:970
0.108:969
0.108:970
0.108:969
0.108:970
0.108:970
0.108:969
0.108:969
0.108:969
0.109:969
0.109:969
0.109:970
0.109:970
0.109:970
0.109:969
0.109:970
0.109:970
0.109:969
0.109:968
0.109:970
0.109:970
0.109:970
0.109:969
0.110:970
0.110:971
0.110:969
0.110:970
0.110:969
0.110:969
0.110:970
0.110:970
0.110:970
0.110:970
0.110:970
0.110:970
0.110:969
0.110:970
0.111:970
0.111:969
0.111:968
0.111:970
0.111:970
0.111:970
0.111:970
0.111:969
0.111:970
0.111:969
0.111:970
0.111:970
0.111:969
0.112:970
0.112:970
0.112:970
0.112:970
0.112:970
0.112:969
0.112:969
0.112:969
0.112:969
0.112:969
0.112:970
0.112:969
0.112:968
0.113:968
0.113:970
0.113:969
0.113:970
0.113:968
0.113:970
0.113:971
0.113:969
0.113:970
0.113:970
0.113:968
0.113:968
0.113:970
0.113:970
0.114:970
0.114:970
0.114:970
0.114:970
0.114:969
0.114:969
0.114:970
0.114:970
0.114:969
0.114:969
0.114:969
0.114:969
0.114:969
0.114:969
0.115:970
0.115:970
0.115:970
0.115:970
0.115:969
0.115:969
0.115:968
0.115:970
0.115:968
0.115:970
0.115:968
0.115:970
0.115:970
0.115:969
0.116:970
0.116:969
0.116:970
0.116:970
0.116:970
0.116:969
0.116:971
0.116:969
0.116:969
0.116:971
0.116:970
0.116:970
0.116:969
0.116:970
0.117:968
0.117:970
0.117:969
0.117:969
0.117:969
0.117:970
0.117:971
0.117:970
0.117:971
0.117:969
0.117:970
0.117:970
0.117:972
0.117:970
0.118:970
0.118:970
0.118:969
0.118:971
0.118:970
0.118:970
0.118:969
0.118:970
0.118:969
0.118:970
0.118:969
0.118:968
0.118:970
0.118:969
0.119:969
0.119:970
0.119:970
0.119:970
0.119:970
0.119:971
0.119:970
0.119:970
0.119:971
0.119:970
0.119:970
0.119:968
0.119:970
0.119:970
0.120:969
0.120:969
0.120:970
0.120:969
0.120:969
0.120:969
0.120:969
0.120:970
0.120:970
0.120:970
0.120:970
0.120:970
0.120:968
0.120:968
0.121:970
0.121:971
0.121:968
0.121:970
0.121:969
0.121:970
0.121:970
0.121:969
0.121:970
0.121:969
0.121:970
0.121:968
0.121:969
0.121:970
0.122:970
0.122:969
0.122:970
0.122:969
0.122:969
0.122:969
0.122:970
0.122:970
0.122:969
0.122:969
0.122:969
0.122:969
0.122:970
0.123:971
0.123:968
0.123:969
0.123:968
0.123:971
0.123:970
0.123:970
0.123:969
0.123:969
0.123:968
0.123:969
0.123:970
0.123:970
0.123:969
0.124:969
0.124:971
0.124:970
0.124:970
0.124:969
0.124:969
0.124:969
0.124:970
0.124:969
0.124:968
0.124:970
0.124:968
0.124:970
0.124:970
0.125:970
0.125:970
0.125:970
0.125:969
0.125:971
0.125:969
0.125:970
0.125:968
0.125:970
0.125:969
0.125:969
0.125:970
0.125:969
0.125:969
0.126:969
0.126:970
0.126:970
0.126:971
0.126:969
0.126:969
0.126:970
0.126:970
0.126:970
0.126:970
0.126:970
0.126:970
0.126:970
0.126:971
0.127:970
0.127:969
0.127:970
0.127:970
0.127:970
0.127:970
0.127:970
0.127:968
0.127:970
0.127:970
0.127:970
0.127:969
0.127:969
0.127:971
0.128:969
0.128:969
0.128:970
0.128:969
0.128:970
0.128:970
0.128:971
0.128:969
0.128:969
0.128:969
0.128:970
0.128:970
0.128:969
0.128:969
0.129:969
0.129:971
0.129:970
0.129:969
0.129:971
0.129:970
0.129:970
0.129:970
0.129:969
0.129:970
0.129:969
0.129:970
0.129:971
0.129:970
0.130:970
0.130:969
0.130:969
0.130:969
0.130:969
0.130:970
0.130:970
0.130:970
0.130:970
0.130:971
0.130:970
0.130:970
0.130:969
0.130:969
0.131:970
0.131:969
0.131:970
0.131:969
0.131:969
0.131:970
0.131:970
0.131:970
0.131:970
0.131:970
0.131:969
0.131:969
0.131:969
0.131:970
0.132:969
0.132:970
0.132:970
0.132:970
0.132:969
0.132:969
0.132:969
0.132:970
0.132:969
0.132:969
0.132:970
0.132:969
0.132:968
0.132:968
0.133:970
0.133:970
0.133:970
0.133:970
0.133:969
0.133:970
0.133:970
0.133:970
0.133:970
0.133:969
0.133:969
0.133:969
0.133:970
0.133:969
0.134:969
0.134:970
0.134:969
0.134:969
0.134:970
0.134:969
0.134:970
0.134:969
0.134:969
0.134:970
0.134:970
0.134:969
0.134:970
0.135:970
0.135:970
0.135:971
0.135:970
0.135:969
0.135:970
0.135:970
0.135:969
0.135:970
0.135:969
0.135:969
0.135:969
0.135:970
0.135:969
0.135:969
0.136:969
0.136:969
0.136:969
0.136:969
0.136:970
0.136:969
0.136:969
0.136:971
0.136:970
0.136:969
0.136:970
0.136:969
0.136:968
0.136:969
0.137:969
0.137:970
0.137:970
0.137:970
0.137:969
0.137:970
0.137:970
0.137:970
0.137:970
0.137:970
0.137:969
0.137:969
0.137:971
0.138:969
0.138:969
0.138:969
0.138:969
0.138:969
0.138:969
0.138:970
0.138:970
0.138:970
0.138:969
0.138:970
0.138:970
0.138:971
0.138:969
0.139:970
0.139:968
0.139:969
0.139:969
0.139:970
0.139:969
0.139:970
0.139:969
0.139:969
0.139:970
0.139:971
0.139:970
0.139:971
0.139:971
0.140:969
0.140:970
0.140:970
0.140:970
0.140:970
0.140:969
0.140:969
0.140:970
0.140:969
0.140:970
0.140:970
0.140:970
0.140:969
0.140:969
0.141:969
0.141:970
0.141:969
0.141:968
0.141:968
0.141:970
0.141:969
0.141:969
0.141:970
0.141:970
0.141:969
0.141:970
0.141:970
0.141:969
0.142:970
0.142:969
0.142:970
0.142:970
0.142:970
0.142:969
0.142:969
0.142:970
0.142:968
0.142:970
0.142:968
0.142:970
0.142:969
0.142:968
0.143:969
0.143:969
0.143:969
0.143:969
0.143:969
0.143:971
0.143:969
0.143:969
0.143:969
0.143:970
0.143:970
0.143:969
0.143:970
0.144:970
0.144:970
0.144:970
0.144:969
0.144:969
0.144:970
0.144:970
0.144:970
0.144:969
0.144:971
0.144:969
0.144:970
0.144:970
0.144:970
0.145:969
0.145:970
0.145:970
0.145:970
0.145:969
0.145:970
0.145:969
0.145:970
0.145:969
0.145:970
0.145:969
0.145:969
0.145:969
0.146:968
0.146:969
0.146:969
0.146:970
0.146:970
0.146:970
0.146:969
0.146:971
0.146:970
0.146:969
0.146:969
0.146:970
0.146:970
0.146:969
0.147:971
0.147:969
0.147:969
0.147:971
0.147:970
0.147:971
0.147:970
0.147:970
0.147:970
0.147:970
0.147:969
0.147:970
0.147:971
0.147:968
0.148:970
0.148:969
0.148:970
0.148:970
0.148:970
0.148:970
0.148:969
0.148:970
0.148:970
0.148:968
0.148:968
0.148:968
0.148:969
0.149:968
0.149:970
0.149:970
0.149:969
0.149:970
0.149:969
0.149:970
0.149:969
0.149:969
0.149:969
0.149:971
0.149:969
0.149:969
0.149:970
0.150:968
0.150:969
0.150:970
0.150:970
0.150:969
0.150:970
0.150:970
0.150:970
0.150:971
0.150:969
0.150:970
0.150:969
0.150:969
0.150:970
0.151:970
0.151:969
0.151:969
0.151:970
0.151:970
0.151:969
0.151:969
0.151:970
0.151:969
0.151:969
0.151:969
0.151:970
0.151:970
0.151:969
0.152:969
0.152:969
0.152:969
0.152:970
0.152:969
0.152:970
0.152:968
0.152:970
0.152:969
0.152:969
0.152:969
0.152:970
0.152:968
0.153:970
0.153:970
0.153:970
0.153:969
0.153:970
0.153:971
0.153:969
0.153:969
0.153:969
0.153:970
0.153:970
0.153:970
0.153:969
0.153:969
0.154:969
0.154:969
0.154:970
0.154:969
0.154:970
0.154:970
0.154:970
0.154:969
0.154:969
0.154:970
0.154:970
0.154:969
0.154:970
0.154:970
0.155:969
0.155:970
0.155:970
0.155:970
0.155:968
0.155:969
0.155:970
0.155:969
0.155:969
0.155:969
0.155:969
0.155:971
0.155:969
0.155:970
0.156:970
0.156:970
0.156:969
0.156:970
0.156:969
0.156:970
0.156:970
0.156:970
0.156:969
0.156:970
0.156:970
0.156:969
0.156:970
0.156:969
0.157:969
0.157:969
0.157:969
0.157:970
0.157:970
0.157:969
0.157:969
0.157:969
0.157:969
0.157:970
0.157:971
0.157:969
0.157:970
0.157:971
0.158:970
0.158:971
0.158:970
0.158:970
0.158:970
0.158:969
0.158:970
0.158:969
0.158:969
0.158:970
0.158:969
0.158:970
0.158:971
0.159:970
0.159:970
0.159:969
0.159:970
0.159:969
0.159:970
0.159:969
0.159:970
0.159:970
0.159:971
0.159:969
0.159:969
0.159:970
0.160:969
0.160:969
0.160:969
0.160:970
0.160:970
0.160:970
0.160:969
0.160:970
0.160:969
0.160:970
0.160:970
0.160:969
0.160:968
0.161:970
0.161:970
0.161:970
0.161:970
0.161:970
0.161:969
0.161:969
0.161:969
0.161:969
0.161:969
0.161:970
0.161:970
0.161:970
0.162:970
0.162:970
0.162:969
0.162:970
0.162:970
0.162:970
0.162:970
0.162:969
0.162:970
0.162:969
0.162:970
0.162:970
0.162:969
0.163:969
0.163:970
0.163:970
0.163:970
0.163:968
0.163:969
0.163:970
0.163:969
0.163:969
0.163:968
0.163:970
0.163:972
0.163:969
0.163:971
0.164:970
0.164:969
0.164:969
0.164:969
0.164:970
0.164:969
0.164:969
0.164:970
0.164:970
0.164:969
0.164:970
0.164:968
0.165:970
0.165:970
0.165:971
0.165:969
0.165:970
0.165:970
0.165:970
0.165:969
0.165:970
0.165:969
0.165:970
0.165:971
0.165:970
0.165:969
0.166:969
0.166:969
0.166:969
0.166:969
0.166:971
0.166:969
0.166:970
0.166:969
0.166:968
0.166:969
0.166:969
0.166:970
0.166:970
0.167:970
0.167:970
0.167:970
0.167:969
0.167:969
0.167:969
0.167:969
0.167:971
0.167:968
0.167:971
0.167:970
0.167:969
0.167:970
0.167:969
0.168:969
0.168:970
0.168:969
0.168:969
0.168:969
0.168:969
0.168:969
0.168:969
0.168:970
0.168:970
0.168:969
0.168:968
0.168:970
0.168:969
0.169:969
0.169:970
0.169:969
0.169:969
0.169:970
0.169:969
0.169:969
0.169:969
0.169:970
0.169:969
0.169:969
0.169:969
0.169:969
0.169:970
0.170:972
0.170:969
0.170:969
0.170:969
0.170:970
0.170:970
0.170:969
0.170:969
0.170:969
0.170:970
0.170:970
0.170:969
0.170:970
0.171:970
0.171:969
0.171:971
0.171:970
0.171:970
0.171:969
0.171:970
0.171:969
0.171:969
0.171:970
0.171:970
0.171:970
0.171:970
0.172:970
0.172:969
0.172:970
0.172:969
0.172:969
0.172:969
0.172:970
0.172:968
0.172:969
0.172:969
0.172:968
0.172:970
0.172:970
0.172:969
0.173:970
0.173:968
0.173:970
0.173:969
0.173:969
0.173:969
0.173:969
0.173:969
0.173:969
0.173:970
0.173:971
0.173:969
0.173:968
0.173:970
0.174:970
0.174:969
0.174:971
0.174:970
0.174:968
0.174:969
0.174:969
0.174:969
0.174:969
0.174:969
0.174:969
0.174:970
0.174:969
0.174:970
0.175:970
0.175:969
0.175:969
0.175:969
0.175:969
0.175:969
0.175:969
0.175:970
0.175:969
0.175:969
0.175:970
0.175:969
0.175:969
0.175:970
0.176:969
0.176:969
0.176:969
0.176:969
0.176:969
0.176:969
0.176:970
0.176:969
0.176:969
0.176:970
0.176:970
0.176:970
0.176:970
0.176:969
0.177:970
0.177:969
0.177:970
0.177:969
0.177:969
0.177:970
0.177:969
0.177:969
0.177:970
0.177:971
0.177:970
0.177:969
0.177:969
0.177:970
0.178:969
0.178:970
0.178:969
0.178:970
0.178:969
0.178:969
0.178:970
0.178:970
0.178:969
0.178:970
0.178:970
0.178:969
0.178:969
0.178:970
0.179:969
0.179:969
0.179:969
0.179:970
0.179:969
0.179:969
0.179:969
0.179:970
0.179:969
0.179:969
0.179:970
0.179:970
0.179:970
0.179:969
0.180:969
0.180:969
0.180:970
0.180:969
0.180:971
0.180:971
0.180:970
0.180:969
0.180:969
0.180:970
0.180:970
0.180:969
0.180:970
0.180:970
0.180:969
0.181:970
0.181:969
0.181:969
0.181:969
0.181:969
0.181:970
0.181:969
0.181:970
0.181:969
0.181:970
0.181:969
0.181:969
0.181:970
0.182:969
0.182:969
0.182:969
0.182:969
0.182:969
0.182:971
0.182:969
0.182:970
0.182:970
0.182:970
0.182:969
0.182:970
0.182:969
0.182:968
0.183:969
0.183:970
0.183:970
0.183:970
0.183:969
0.183:971
0.183:970
0.183:968
0.183:970
0.183:970
0.183:970
0.183:970
0.183:972
0.183:969
0.184:970
0.184:969
0.184:969
0.184:969
0.184:970
0.184:970
0.184:970
0.184:969
0.184:969
0.184:969
0.184:969
0.184:970
0.184:968
0.184:970
0.185:968
0.185:971
0.185:970
0.185:968
0.185:970
0.185:970
0.185:969
0.185:969
0.185:970
0.185:969
0.185:969
0.185:970
0.185:969
0.185:970
0.186:970
0.186:970
0.186:970
0.186:969
0.186:969
0.186:969
0.186:970
0.186:970
0.186:970
0.186:969
0.186:970
0.186:969
0.186:969
0.186:970
0.187:969
0.187:969
0.187:970
0.187:970
0.187:970
0.187:969
0.187:969
0.187:970
0.187:969
0.187:968
0.187:970
0.187:970
0.187:970
0.187:969
0.187:969
0.187:969
0.187:969
0.187:969
0.187:969
0.187:970
0.187:970
0.187:969
0.187:970
0.187:968
0.187:970
0.187:970
0.187:969
0.187:969
0.188:971
0.188:969
0.188:970
0.188:970
0.188:969
0.188:969
0.188:970
0.188:969
0.188:969
0.188:970
0.188:970
0.188:969
0.188:972
0.188:969
0.189:969
0.189:970
0.189:971
0.189:970
0.189:969
0.189:969
0.189:970
0.189:971
0.189:970
0.189:970
0.189:970
0.189:968
0.189:970
0.190:970
0.190:970
0.190:969
0.190:971
0.190:970
0.190:971
0.190:969
0.190:969
0.190:970
0.190:969
0.190:969
0.190:969
0.190:969
0.191:969
0.191:970
0.191:969
0.191:969
0.191:970
0.191:968
0.191:970
0.191:969
0.191:969
0.191:970
0.191:970
0.191:968
0.191:969
0.191:970
0.192:971
0.192:970
0.192:968
0.192:969
0.192:969
0.192:969
0.192:970
0.192:
0.192:450
0.192:428
0.192:406
0.192:392
0.192:397
0.193:430
0.193:442
0.193:478
0.193:502
0.193:472
0.193:455
0.193:464
0.193:462
0.193:465
0.193:475
0.193:485
0.193:473
0.193:463
0.193:464
0.194:472
0.194:462
0.194:447
0.194:441
0.194:468
0.194:489
0.194:471
0.194:478
0.194:484
0.194:450
0.194:423
0.194:405
0.194:407
0.195:434
0.195:453
0.195:454
0.195:454
0.195:445
0.195:435
0.195:442
0.195:453
0.195:458
0.195:466
0.195:458
0.195:462
0.195:446
0.195:430
0.196:439
0.196:445
0.196:445
0.196:430
0.196:450
0.196:477
0.196:479
0.196:488
0.196:498
0.196:499
0.196:502
0.196:483
0.196:475
0.196:463
0.197:436
0.197:432
0.197:457
0.197:464
0.197:453
0.197:454
0.197:453
0.197:453
0.197:463
0.197:448
0.197:444
0.197:471
0.197:508
0.198:478
0.198:464
0.198:447
0.198:447
0.198:461
0.198:463
0.198:460
0.198:451
0.198:453
0.198:444
0.198:423
0.198:431
0.198:472
0.198:499
0.199:498
0.199:494
0.199:498
0.199:500
0.199:508
0.199:507
0.199:489
0.199:413
0.199:413
0.199:413
0.199:460
0.199:463
0.199:474
0.199:495
0.200:498
0.200:502
0.200:484
0.200:479
0.200:477
0.200:484
0.200:470
0.200:443
0.200:442
0.200:439
0.200:444
0.200:429
0.200:435
0.200:454
0.201:484
0.201:482
0.201:453
0.201:432
0.201:506
0.201:518
0.201:480
0.201:458
0.201:456
0.201:465
0.201:468
0.201:445
0.201:437
0.201:426
0.202:409
0.202:399
0.202:409
0.202:438
0.202:447
0.203:439
0.203:434
0.203:449
0.203:494
0.203:527
0.203:540
0.206:522
0.206:520
0.207:514
0.207:473
0.207:443
0.207:440
0.207:467
0.207:482
0.207:487
0.210:491
0.210:496
0.210:492
0.210:479
0.211:469
0.211:484
0.227:484
0.227:486
0.227:474
0.227:454
0.231:453
0.231:483
0.231:521
0.231:502
0.231:488
0.231:479
0.231:485
0.231:493
0.232:484
0.232:496
0.235:485
0.235:471
0.235:455
0.235:459
0.235:485
0.235:502
0.235:508
0.236:510
0.236:510
0.239:506
0.239:515
0.239:523
0.239:520
0.239:530
0.239:542
0.239:539
0.255:534
0.260:524
0.260:519
0.260:528
0.261:539
0.261:566
0.261:568
0.261:527
0.261:498
0.261:481
0.261:487
0.264:503
0.264:527
0.265:539
0.265:531
0.265:514
0.265:507
0.265:511
0.265:489
0.265:481
0.268:501
0.268:490
0.268:469
0.268:461
0.268:482
0.268:512
0.268:516
0.268:521
0.268:514
0.269:505
0.289:505
0.289:503
0.289:514
0.289:540
0.289:497
0.290:469
0.290:466
0.290:439
0.290:413
0.290:468
0.293:506
0.293:458
0.293:438
0.293:439
0.294:434
0.294:429
0.294:445
0.294:456
0.294:454
0.297:449
0.297:434
0.297:419
0.297:420
0.298:421
0.298:440
0.298:475
0.298:480
0.298:457
0.299:458
0.301:452
0.317:452
0.317:484
0.318:512
0.318:490
0.318:449
0.318:454
0.319:455
0.321:419
0.322:421
0.322:478
0.322:481
0.322:447
0.323:426
0.323:445
0.323:477
0.323:492
0.326:495
0.326:481
0.326:449
0.326:428
0.326:445
0.327:457
0.327:458
0.327:458
0.327:452
0.327:458
0.329:469
0.330:461
0.330:445
0.330:451
0.346:451
0.346:471
0.346:465
0.347:451
0.347:445
0.347:445
0.350:438
0.350:444
0.351:446
0.351:462
0.351:433
0.351:427
0.351:457
0.352:459
0.352:443
0.354:450
0.354:465
0.355:487
0.355:507
0.355:555
0.355:622
0.356:662
0.356:691
0.356:747
0.356:781
0.358:810
0.358:833
0.359:880
0.359:940
0.359:991
0.375:988
0.375:989
0.379:987
0.379:986
0.379:988
0.379:987
0.380:988
0.380:988
0.380:989
0.380:990
0.380:970
0.381:953
0.383:934
0.383:900
0.383:839
0.383:757
0.383:691
0.384:630
0.384:565
0.384:509
0.384:443
0.385:373
0.387:329
0.387:291
0.387:248
0.387:239
0.388:234
0.388:249
0.388:283
0.388:326
0.403:326
0.403:354
0.407:368
0.408:354
0.408:339
0.408:347
0.408:332
0.408:304
0.409:305
0.409:323
0.409:377
0.411:431
0.412:455
0.412:446
0.412:419
0.412:398
0.413:386
0.413:409
0.413:430
0.413:433
0.413:411
0.416:391
0.416:397
0.416:419
0.416:429
0.416:419
0.417:402
0.417:394
0.417:397
0.417:392
0.436:382
0.436:400
0.436:417
0.436:425
0.437:420
0.437:446
0.437:438
0.437:399
0.440:346
0.440:322
0.440:336
0.441:348
0.441:400
0.441:431
0.441:449
0.441:453
0.441:446
0.444:433
0.444:451
0.444:448
0.444:427
0.445:426
0.445:437
0.445:441
0.445:449
0.445:456
0.445:451
0.448:444
0.448:441
0.448:435
0.465:435
0.465:420
0.465:420
0.465:419
0.465:431
0.465:411
0.465:413
0.469:431
0.469:458
0.469:445
0.469:435
0.470:447
0.470:451
0.470:462
0.470:446
0.470:449
0.471:458
0.473:453
0.473:449
0.473:461
0.474:462
0.474:438
0.474:454
0.474:460
0.474:467
0.475:444
0.477:443
0.477:458
0.477:476
0.477:489
0.493:494
0.493:493
0.494:492
0.494:484
0.498:484
0.498:483
0.498:473
0.498:455
0.498:456
0.499:463
0.499:470
0.499:467
0.499:466
0.501:472
0.502:487
0.502:488
0.502:491
0.502:508
0.502:526
0.503:532
0.503:510
0.503:499
0.503:485
0.506:471
0.506:469
0.506:453
0.506:443
0.507:417
0.507:456
0.507:489
0.522:489
0.522:522
0.522:528
0.526:516
0.526:524
0.527:498
0.527:457
0.527:454
0.527:488
0.528:515
0.528:514
0.528:505
0.530:487
0.530:487
0.531:492
0.531:521
0.531:543
0.531:516
0.531:480
0.532:479
0.532:496
0.532:499
0.534:505
0.535:544
0.535:574
0.535:577
0.535:574
0.535:538
0.536:514
0.536:520
0.555:529
0.556:521
0.556:510
0.556:505
0.556:488
0.557:493
0.557:498
0.557:516
0.557:513
0.559:511
0.559:509
0.560:539
0.560:565
0.560:577
0.560:559
0.560:536
0.561:520
0.561:533
0.561:558
0.564:557
0.564:558
0.564:557
0.564:550
0.564:566
0.565:565
0.565:562
0.565:554
0.565:542
0.567:560
0.567:550
0.584:550
0.584:537
0.584:543
0.584:564
0.585:582
0.585:593
0.585:596
0.585:594
0.588:590
0.588:606
0.589:593
0.589:570
0.589:563
0.589:585
0.589:610
0.590:626
0.590:625
0.590:611
0.592:609
0.592:616
0.592:606
0.593:600
0.593:590
0.593:582
0.593:576
0.594:574
0.594:573
0.596:560
0.596:584
0.596:615
0.612:635
0.612:628
0.613:615
0.613:615
0.613:618
0.616:617
0.617:621
0.617:646
0.617:652
0.617:639
0.617:622
0.618:589
0.618:560
0.618:571
0.618:591
0.621:590
0.621:592
0.621:602
0.621:610
0.621:625
0.622:600
0.622:585
0.622:586
0.622:593
0.624:579
0.625:572
0.625:550
0.625:545
0.625:559
0.626:571
0.641:571
0.641:572
0.641:579
0.642:538
0.645:498
0.645:504
0.646:514
0.646:515
0.646:512
0.646:514
0.646:515
0.647:501
0.647:503
0.647:514
0.649:516
0.649:489
0.650:470
0.650:457
0.650:458
0.650:497
0.651:505
0.651:487
0.651:479
0.653:472
0.653:458
0.654:443
0.654:424
0.654:408
0.654:408
0.654:418
0.670:425
0.674:430
0.674:426
0.674:418
0.675:404
0.675:411
0.675:415
0.675:422
0.675:423
0.676:414
0.676:407
0.678:388
0.678:359
0.678:379
0.679:409
0.679:415
0.679:395
0.679:371
0.679:368
0.680:387
0.682:397
0.682:413
0.683:415
0.683:416
0.683:386
0.683:363
0.683:346
0.684:336
0.684:334
0.684:345
0.703:345
0.703:368
0.703:379
0.703:382
0.703:388
0.704:380
0.704:364
0.704:350
0.704:373
0.705:426
0.707:455
0.707:445
0.707:412
0.707:395
0.708:402
0.708:402
0.708:399
0.708:402
0.709:398
0.711:391
0.711:412
0.711:431
0.711:422
0.711:398
0.712:395
0.712:390
0.712:378
0.712:362
0.712:378
0.715:403
0.731:421
0.731:431
0.731:433
0.731:460
0.732:475
0.732:459
0.735:441
0.735:445
0.736:429
0.736:403
0.736:386
0.736:374
0.736:371
0.736:363
0.736:377
0.736:409
0.739:423
0.740:439
0.740:450
0.740:437
0.740:423
0.740:411
0.740:410
0.740:409
0.740:433
0.740:447
0.743:442
0.743:440
0.744:451
0.744:474
0.760:474
0.760:475
0.760:461
0.760:461
0.760:462
0.760:459
0.764:436
0.764:408
0.764:414
0.764:408
0.764:391
0.764:388
0.765:421
0.765:452
0.765:470
0.768:463
0.768:435
0.768:418
0.768:439
0.768:464
0.769:479
0.769:462
0.769:453
0.769:453
0.769:451
0.772:432
0.772:426
0.772:441
0.772:481
0.772:485
0.788:470
0.789:461
0.793:419
0.793:392
0.793:395
0.793:469
0.793:510
0.793:484
0.793:468
0.793:469
0.793:473
0.793:463
0.797:449
0.797:441
0.797:443
0.797:451
0.797:456
0.797:451
0.797:446
0.797:442
0.797:440
0.801:448
0.801:465
0.801:470
0.801:462
0.801:466
0.801:465
0.801:480
0.801:494
0.801:492
0.816:492
0.816:459
0.821:464
0.821:448
0.821:454
0.821:457
0.821:434
0.821:441
0.821:456
0.821:480
0.821:482
0.825:467
0.825:442
0.825:396
0.825:409
0.825:442
0.825:457
0.825:460
0.826:465
0.826:468
0.826:472
0.829:472
0.829:465
0.829:479
0.829:479
0.829:463
0.829:454
0.829:456
0.829:466
0.830:468
0.849:479
0.850:466
0.850:470
0.850:487
0.850:488
0.850:487
0.850:475
0.850:463
0.854:469
0.854:466
0.854:433
0.854:410
0.854:409
0.854:424
0.854:423
0.854:417
0.854:427
0.859:460
0.859:515
0.859:524
0.859:505
0.859:491
0.859:493
0.859:500
0.859:490
0.859:480
0.859:478
0.863:484
0.863:483
0.863:473
0.878:473
0.878:487
0.878:476
0.878:473
0.878:488
0.878:476
0.878:484
0.883:469
0.883:483
0.883:481
0.883:464
0.883:472
0.883:487
0.883:483
0.883:471
0.883:451
0.886:440
0.886:446
0.886:431
0.886:429
0.887:455
0.887:475
0.887:475
0.887:472
0.887:467
0.887:473
0.890:461
0.890:446
0.890:427
0.890:442
0.907:458
0.907:472
0.907:485
0.907:494
0.911:492
0.911:490
0.911:480
0.911:476
0.911:488
0.911:497
0.911:482
0.911:447
0.912:411
0.916:390
0.916:414
0.916:420
0.916:429
0.916:481
0.916:499
0.916:480
0.916:493
0.916:493
0.916:490
0.919:511
0.920:484
0.920:452
0.920:455
0.920:472
0.920:489
0.920:502
0.935:502
0.935:514
0.936:520
0.941:521
0.941:514
0.941:504
0.941:506
0.941:519
0.941:512
0.941:500
0.941:486
0.941:479
0.945:475
0.945:472
0.945:478
0.945:480
0.945:471
0.945:475
0.945:466
0.945:446
0.945:458
0.945:473
0.949:498
0.949:513
0.949:508
0.949:507
0.949:522
0.949:532
0.949:536
0.949:542
0.969:535
0.969:511
0.969:510
0.969:521
0.969:525
0.969:498
0.969:493
0.969:507
0.970:534
0.973:577
0.973:586
0.973:564
0.973:540
0.973:518
0.973:521
0.973:514
0.973:510
0.973:517
0.973:527
0.977:524
0.977:517
0.977:517
0.977:527
0.977:522
0.977:518
0.977:515
0.977:516
0.977:499
0.981:478
0.981:469
0.997:469
0.997:480
0.997:487
0.997:465
0.997:437
0.997:428
0.997:444
0.997:483
1.002:501
1.002:499
1.002:484
1.002:452
1.002:442
1.002:437
1.002:436
1.002:448
1.003:447
1.003:457
1.006:470
1.006:470
1.006:476
1.006:462
1.006:447
1.007:476
1.007:478
1.007:473
1.007:489
1.009:494
1.009:491
1.009:475
1.026:453
1.026:440
1.026:442
1.026:450
1.026:460
1.031:450
1.031:439
1.031:458
1.031:472
1.031:465
1.031:464
1.031:475
1.031:483
1.031:476
1.031:467
1.034:452
1.034:444
1.034:447
1.034:452
1.034:466
1.034:468
1.034:466
1.034:464
1.034:481
1.038:478
1.038:464
1.038:485
1.038:486
1.038:472
1.038:473
1.054:473
1.054:488
1.054:500
1.054:500
1.059:482
1.059:455
1.059:445
1.059:443
1.059:440
1.059:445
1.059:462
1.059:483
1.059:462
1.059:426
1.063:417
1.063:419
1.063:415
1.063:397
1.063:364
1.063:360
1.063:400
1.063:442
1.063:441
1.067:478
1.067:533
1.067:600
1.067:659
1.067:696
1.067:749
1.067:806
1.082:842
1.088:885
1.088:936
1.088:976
1.088:990
1.088:989
1.088:989
1.088:988
1.088:987
1.088:987
1.088:987
1.092:987
1.092:987
1.092:990
1.092:989
1.092:983
1.092:943
1.092:897
1.092:849
1.092:807
1.096:760
1.096:709
1.096:655
1.096:604
1.096:550
1.096:488
1.096:412
1.096:336
1.096:285
1.097:252
1.117:252
1.117:236
1.117:245
1.117:268
1.117:289
1.117:306
1.117:297
1.117:304
1.117:339
1.117:378
1.120:391
1.120:406
1.120:433
1.120:427
1.120:417
1.120:411
1.120:412
1.120:413
1.120:386
1.124:369
1.124:368
1.124:381
1.124:416
1.124:426
1.124:406
1.124:384
1.124:382
1.124:366
1.125:357
1.128:384
1.144:431
1.144:434
1.144:418
1.144:384
1.145:388
1.145:424
1.149:437
1.149:434
1.149:442
1.149:424
1.149:410
1.149:390
1.149:369
1.150:359
1.150:374
1.150:423
1.153:468
1.153:463
1.153:439
1.153:439
1.153:428
1.153:417
1.153:421
1.153:405
1.153:376
1.153:381
1.156:380
1.156:410
1.156:421
1.157:408
1.173:408
1.173:426
1.173:421
1.173:409
1.173:425
1.173:457
1.177:499
1.177:501
1.177:474
1.177:468
1.177:468
1.177:477
1.177:468
1.178:443
1.178:435
1.182:431
1.182:418
1.182:420
1.182:423
1.182:432
1.182:443
1.182:441
1.182:456
1.182:472
1.182:480
1.185:470
1.185:453
1.185:437
1.185:430
1.186:434
1.202:463
1.202:458
1.207:450
1.207:454
1.207:455
1.207:484
1.207:492
1.207:491
1.207:492
1.207:456
1.207:452
1.207:483
1.211:499
1.211:496
1.211:486
1.211:478
1.211:466
1.211:452
1.211:459
1.211:478
1.211:485
1.214:475
1.214:483
1.214:501
1.214:501
1.214:492
1.214:489
1.214:489
1.214:486
1.215:490
1.230:490
1.230:488
1.234:492
1.234:479
1.235:467
1.235:446
1.235:443
1.235:441
1.235:478
1.235:498
1.235:499
1.239:500
1.239:492
1.239:482
1.239:480
1.239:468
1.240:486
1.240:503
1.240:509
1.240:524
1.240:530
1.243:535
1.243:518
1.243:529
1.243:545
1.243:556
1.243:528
1.244:501
1.244:514
1.244:508
1.264:521
1.264:534
1.264:535
1.264:558
1.264:521
1.264:511
1.264:518
1.264:474
1.267:484
1.267:509
1.267:511
1.268:514
1.268:524
1.268:535
1.268:556
1.268:548
1.268:548
1.271:568
1.271:560
1.271:546
1.272:545
1.272:551
1.272:555
1.272:551
1.272:538
1.272:529
1.272:539
1.276:550
1.276:555
1.276:584
1.292:584
1.292:597
1.292:587
1.292:593
1.292:595
1.292:587
1.292:586
1.297:567
1.297:570
1.297:558
1.297:567
1.297:568
1.297:569
1.297:591
1.297:589
1.297:574
1.301:542
1.301:558
1.301:582
1.301:608
1.301:612
1.301:608
1.301:604
1.301:602
1.301:597
1.301:593
1.304:585
1.304:587
1.304:613
1.304:611
1.320:611
1.320:603
1.320:595
1.320:601
1.324:623
1.325:630
1.325:618
1.325:603
1.325:596
1.325:597
1.325:609
1.325:618
1.325:618
1.329:606
1.329:592
1.329:593
1.329:571
1.329:546
1.329:557
1.329:569
1.329:565
1.329:594
1.329:636
1.333:645
1.333:652
1.333:632
1.333:595
1.333:587
1.333:578
1.333:576
1.349:576
1.349:581
1.349:559
1.354:555
1.354:578
1.354:582
1.354:572
1.354:565
1.354:548
1.354:552
1.354:551
1.355:541
1.358:536
1.358:533
1.358:523
1.358:492
1.358:498
1.358:508
1.359:501
1.359:489
1.359:474
1.359:486
1.362:491
1.362:494
1.362:484
1.362:470
1.362:489
1.362:475
1.362:471
1.362:453
1.382:427
1.382:412
1.382:418
1.383:417
1.383:425
1.383:444
1.383:454
1.383:464
1.383:439
1.387:412
1.387:399
1.387:417
1.387:420
1.387:398
1.387:393
1.387:397
1.387:393
1.387:398
1.387:416
1.390:424
1.390:401
1.390:386
1.390:376
1.390:400
1.390:417
1.390:395
1.391:405
1.391:423
1.394:425
1.394:420
1.410:420
1.411:411
1.411:396
1.411:393
1.411:398
1.411:394
1.411:409
1.411:431
1.415:440
1.415:432
1.415:406
1.415:388
1.415:369
1.415:373
1.415:371
1.415:351
1.415:369
1.415:387
1.419:369
1.419:358
1.419:355
1.419:349
1.419:355
1.420:394
1.420:413
1.420:413
1.420:397
1.423:388
1.423:411
1.423:418
1.439:414
1.439:409
1.439:421
1.439:399
1.439:406
1.443:420
1.443:432
1.443:426
1.443:402
1.443:402
1.444:394
1.444:395
1.444:408
1.444:410
1.444:411
1.447:421
1.447:412
1.447:416
1.447:437
1.447:435
1.448:447
1.448:456
1.448:451
1.448:448
1.452:457
1.452:456
1.452:446
1.452:434
1.452:422
1.452:429
1.468:429
1.468:417
1.468:412
1.468:435
1.472:445
1.473:435
1.473:434
1.473:426
1.473:394
1.473:399
1.473:446
1.473:449
1.473:467
1.473:481
1.477:468
1.477:466
1.477:468
1.477:452
1.477:440
1.477:435
1.477:434
1.477:432
1.477:439
1.481:462
1.481:476
1.481:477
1.481:473
1.481:468
1.481:449
1.481:435
1.497:438
1.501:440
1.501:444
1.501:444
1.501:430
1.501:409
1.501:396
1.502:429
1.502:446
1.502:453
1.505:462
1.505:474
1.505:472
1.505:469
1.505:448
1.506:438
1.506:439
1.506:463
1.506:489
1.506:480
1.509:483
1.509:484
1.509:476
1.510:463
1.510:457
1.510:458
1.510:454
1.510:449
1.510:444
1.510:447
1.530:447
1.530:448
1.530:453
1.530:447
1.530:440
1.530:421
1.530:424
1.530:449
1.530:467
1.530:458
1.534:449
1.534:467
1.534:481
1.534:471
1.534:455
1.534:456
1.534:450
1.534:461
1.534:448
1.538:431
1.538:417
1.538:444
1.538:470
1.538:469
1.538:451
1.538:452
1.538:461
1.538:483
1.538:507
1.542:499
1.558:493
1.558:480
1.558:487
1.558:486
1.558:497
1.558:500
1.562:484
1.562:469
1.562:452
1.562:447
1.562:441
1.563:430
1.563:439
1.563:444
1.563:446
1.563:444
1.566:455
1.566:457
1.566:464
1.566:483
1.566:470
1.566:431
1.566:423
1.567:433
1.567:451
1.570:450
1.570:458
1.570:465
1.570:472
1.570:483
1.586:483
1.586:482
1.587:488
1.587:479
1.587:479
1.587:467
1.591:473
1.591:475
1.591:463
1.591:475
1.591:490
1.591:483
1.591:465
1.591:484
1.591:489
1.595:492
1.595:480
1.595:468
1.595:464
1.595:456
1.595:457
1.595:461
1.595:460
1.595:452
1.595:466
1.599:473
1.599:461
1.599:458
1.599:470
1.599:470
1.615:434
1.615:403
1.619:410
1.619:462
1.619:497
1.619:498
1.619:495
1.620:469
1.620:452
1.620:463
1.620:496
1.620:488
1.623:471
1.624:498
1.624:473
1.624:438
1.624:457
1.624:475
1.624:472
1.624:482
1.624:488
1.627:501
1.627:525
1.628:502
1.628:474
1.628:467
1.628:466
1.628:472
1.628:463
1.628:458
1.644:458
1.649:447
1.649:436
1.649:441
1.649:438
1.649:441
1.649:459
1.649:461
1.649:448
1.649:447
1.649:466
1.653:482
1.653:491
1.653:473
1.653:477
1.653:495
1.653:493
1.653:483
1.653:483
1.653:490
1.653:487
1.656:496
1.656:498
1.656:494
1.657:497
1.657:487
1.657:474
1.657:480
1.657:474
1.657:479
1.677:487
1.677:491
1.677:490
1.677:491
1.677:506
1.677:501
1.677:484
1.677:486
1.681:517
1.681:526
1.681:514
1.681:498
1.681:492
1.681:469
1.681:466
1.681:464
1.681:466
1.685:470
1.685:476
1.685:483
1.685:492
1.685:496
1.685:497
1.685:510
1.685:515
1.685:501
1.685:498
1.690:487
1.690:497
1.690:512
1.706:512
1.706:529
1.706:532
1.706:532
1.706:532
1.706:530
1.706:534
1.710:543
1.710:557
1.710:557
1.711:524
1.711:486
1.711:469
1.711:501
1.711:536
1.711:556
1.714:556
1.714:555
1.714:522
1.714:496
1.714:501
1.715:507
1.715:509
1.715:518
1.715:522
1.715:501
1.718:510
1.718:536
1.718:525
1.718:499
1.734:487
1.734:491
1.734:521
1.734:521
1.739:498
1.739:466
1.739:480
1.739:509
1.739:521
1.739:506
1.739:507
1.739:514
1.739:498
1.743:473
1.743:462
1.743:441
1.743:445
1.743:452
1.743:478
1.743:485
1.743:454
1.743:418
1.743:426
1.746:447
1.746:428
1.746:435
1.746:448
1.746:443
1.746:463
1.746:481
1.762:481
1.762:476
1.763:474
1.767:474
1.767:476
1.767:501
1.767:477
1.767:446
1.767:456
1.767:448
1.767:458
1.767:449
1.771:447
1.771:468
1.771:463
1.771:447
1.771:447
1.771:449
1.771:448
1.771:480
1.771:499
1.771:509
1.775:506
1.775:489
1.775:471
1.775:478
1.775:483
1.775:496
1.775:516
1.775:518
1.795:503
1.795:502
1.795:507
1.795:471
1.796:454
1.796:453
1.796:469
1.796:474
1.796:463
1.800:462
1.800:443
1.800:434
1.800:432
1.800:445
1.800:453
1.800:414
1.800:391
1.800:397
1.800:411
1.804:424
1.804:421
1.804:450
1.804:456
1.804:439
1.804:501
1.804:581
1.804:668
1.804:753
1.808:795
1.808:813
1.824:813
1.824:837
1.824:893
1.824:948
1.824:990
1.825:989
1.825:988
1.825:989
1.828:988
1.828:986
1.829:988
1.829:987
1.829:988
1.829:988
1.829:990
1.829:989
1.829:990
1.829:947
1.833:923
1.833:881
1.833:794
1.833:717
1.833:680
1.833:639
1.833:568
1.833:541
1.833:498
1.836:413
1.836:293
1.836:193
1.852:154
1.853:193
1.853:236
1.853:261
1.853:269
1.857:294
1.857:307
1.857:316
1.857:339
1.857:352
1.857:369
1.857:355
1.857:355
1.857:367
1.857:389
1.861:401
1.861:414
1.861:420
1.861:420
1.861:405
1.861:398
1.861:403
1.861:390
1.861:400
1.865:399
1.865:400
1.865:380
1.865:372
1.865:391
1.865:413
1.881:413
1.881:421
1.881:406
1.881:384
1.886:375
1.886:381
1.886:390
1.886:421
1.886:446
1.886:442
1.886:432
1.886:420
1.886:415
1.886:400
1.889:388
1.890:390
1.890:405
1.890:438
1.890:444
1.890:431
1.890:430
1.890:449
1.890:466
1.895:485
1.895:473
1.895:450
1.895:442
1.895:423
1.895:434
1.895:437
1.910:450
1.914:443
1.914:453
1.914:445
1.914:414
1.914:421
1.914:431
1.915:443
1.915:461
1.915:466
1.919:449
1.919:416
1.919:411
1.919:400
1.919:419
1.919:433
1.919:445
1.919:467
1.919:480
1.919:466
1.923:456
1.923:451
1.923:450
1.923:436
1.923:430
1.923:456
1.923:482
1.923:488
1.923:478
1.923:473
1.943:473
1.943:491
1.943:511
1.943:525
1.943:516
1.943:484
1.943:474
1.943:459
1.943:446
1.943:461
1.947:465
1.947:485
1.947:488
1.947:475
1.947:464
1.947:463
1.947:460
1.947:471
1.947:469
1.951:464
1.951:471
1.951:472
1.951:460
1.952:455
1.952:448
1.952:452
1.952:476
1.952:525
1.952:529
1.955:504
1.971:517
1.971:504
1.971:464
1.972:440
1.972:455
1.972:481
1.976:490
1.976:488
1.976:499
1.976:506
1.976:515
1.976:534
1.976:538
1.976:520
1.977:491
1.977:491
1.980:497
1.980:521
1.980:528
1.980:532
1.980:524
1.980:512
1.980:493
1.981:480
1.981:476
1.983:498
1.984:510
1.984:511
1.984:512
1.984:511
2.000:511
2.000:527
2.000:527
2.000:543
2.000:537
2.004:528
2.004:525
2.005:522
2.005:512
2.005:487
2.005:501
2.005:514
2.005:518
2.005:543
2.005:543
2.009:535
2.009:540
2.009:530
2.009:498
2.009:507
2.009:527
2.009:533
2.009:547
2.009:585
2.010:598
2.013:593
2.013:589
2.013:594
2.013:593
2.013:594
2.029:575
2.029:540
2.033:521
2.033:520
2.033:547
2.033:579
2.033:597
2.034:593
2.034:595
2.034:594
2.034:563
2.034:551
2.038:548
2.038:533
2.038:536
2.038:554
2.038:564
2.038:574
2.038:588
2.038:595
2.038:608
2.042:616
2.042:616
2.042:627
2.042:629
2.042:627
2.042:616
2.042:587
2.042:587
2.042:581
2.057:581
2.063:587
2.063:559
2.063:569
2.063:605
2.063:606
2.063:618
2.063:632
2.063:640
2.063:642
2.063:622
2.067:591
2.067:576
2.067:593
2.067:607
2.067:614
2.067:601
2.067:599
2.067:602
2.067:596
2.071:581
2.071:586
2.071:607
2.071:602
2.071:590
2.071:576
2.071:568
2.071:572
2.071:561
2.071:566
2.090:591
2.090:602
2.090:619
2.090:611
2.090:585
2.091:569
2.091:566
2.091:556
2.094:572
2.095:571
2.095:564
2.095:549
2.095:521
2.095:510
2.095:495
2.095:491
2.095:492
2.099:500
2.099:486
2.099:475
2.099:467
2.099:459
2.099:457
2.099:462
2.099:480
2.099:491
2.100:481
2.103:472
2.103:469
2.103:452
2.119:452
2.119:448
2.119:459
2.119:456
2.119:444
2.119:453
2.119:464
2.123:444
2.123:423
2.123:420
2.123:442
2.123:448
2.123:457
2.124:461
2.124:444
2.124:409
2.127:404
2.127:406
2.127:375
2.127:345
2.127:358
2.128:380
2.128:403
2.128:404
2.128:400
2.128:420
2.132:404
2.132:381
2.132:382
2.132:376
2.148:376
2.148:376
2.148:369
2.148:354
2.152:368
2.152:401
2.153:401
2.153:402
2.153:432
2.153:419
2.153:384
2.153:383
2.153:386
2.157:386
2.157:403
2.157:398
2.157:407
2.157:412
2.157:417
2.157:400
2.157:396
2.157:392
2.157:384
2.160:370
2.160:358
2.160:349
2.160:383
2.160:426
2.160:422
2.160:388
2.176:388
2.176:372
2.176:372
2.180:391
2.180:424
2.181:438
2.181:446
2.181:447
2.181:425
2.181:410
2.181:416
2.181:426
2.184:423
2.185:422
2.185:421
2.185:427
2.185:424
2.185:445
2.185:442
2.185:402
2.186:380
2.186:382
2.188:411
2.189:411
2.189:401
2.189:422
2.189:438
2.189:443
2.189:432
2.189:420
2.209:417
2.209:410
2.209:426
2.209:450
2.209:452
2.209:462
2.209:464
2.209:459
2.210:468
2.213:474
2.213:482
2.213:471
2.213:460
2.213:455
2.214:447
2.214:460
2.214:468
2.214:469
2.214:464
2.217:457
2.217:444
2.217:449
2.217:457
2.217:444
2.218:416
2.218:400
2.218:408
2.218:434
2.222:462
2.222:458
2.237:458
2.237:422
2.237:423
2.237:424
2.238:409
2.238:404
2.238:428
2.238:461
2.242:472
2.242:467
2.242:459
2.242:446
2.242:446
2.242:450
2.242:452
2.242:455
2.242:457
2.242:460
2.247:462
2.247:472
2.247:469
2.247:477
2.247:476
2.247:477
2.247:453
2.247:468
2.247:474
2.251:471
2.251:470
2.251:456
2.266:460
2.266:459
2.266:482
2.266:488
2.266:490
2.271:479
2.271:475
2.271:465
2.271:451
2.271:444
2.271:450
2.271:461
2.271:454
2.271:435
2.271:431
2.274:442
2.274:462
2.274:459
2.275:454
2.275:452
2.275:474
2.275:491
2.275:488
2.275:468
2.279:470
2.279:454
2.280:440
2.280:460
2.280:477
2.280:488
2.295:488
2.295:496
2.296:499
2.296:475
2.300:453
2.300:457
2.300:473
2.300:477
2.300:484
2.300:496
2.300:489
2.300:482
2.300:485
2.300:509
2.303:506
2.303:478
2.304:458
2.304:457
2.304:464
2.304:478
2.304:467
2.304:448
2.304:433
2.307:423
2.308:425
2.308:436
2.308:455
2.308:474
2.308:452
2.308:413
2.324:419
2.328:463
2.328:495
2.328:518
2.328:489
2.328:479
2.328:490
2.329:487
2.329:477
2.329:486
2.333:473
2.333:482
2.333:490
2.333:464
2.333:453
2.333:467
2.333:476
2.333:479
2.333:499
2.333:485
2.337:493
2.337:487
2.337:499
2.337:483
2.337:472
2.337:454
2.337:434
2.337:435
2.337:451
2.337:454
2.357:454
2.357:450
2.357:472
2.357:463
2.357:465
2.357:498
2.357:498
2.357:491
2.357:474
2.361:477
2.361:482
2.361:496
2.361:491
2.361:479
2.361:464
2.361:450
2.361:445
2.361:431
2.361:434
2.365:446
2.365:452
2.365:465
2.365:477
2.365:499
2.365:516
2.365:508
2.365:483
2.366:475
2.366:471
2.368:478
2.385:467
2.385:457
2.385:463
2.385:488
2.385:508
2.385:504
2.390:489
2.390:499
2.390:498
2.390:489
2.390:498
2.390:507
2.390:502
2.390:498
2.390:472
2.391:461
2.393:466
2.394:458
2.394:450
2.394:464
2.394:469
2.394:448
2.394:441
2.394:465
2.394:492
2.398:513
2.398:505
2.398:491
2.398:501
2.398:518
2.414:518
2.414:517
2.414:518
2.414:532
2.414:523
2.419:500
2.419:470
2.419:456
2.419:465
2.419:486
2.419:499
2.419:494
2.419:496
2.419:486
2.420:468
2.423:442
2.423:454
2.423:480
2.423:482
2.423:488
2.423:491
2.423:499
2.423:498
2.423:506
2.427:507
2.427:492
2.427:484
2.427:516
2.427:529
2.427:519
2.442:500
2.443:505
2.447:526
2.447:538
2.447:507
2.447:473
2.447:493
2.447:533
2.447:557
2.447:553
2.447:539
2.448:548
2.451:565
2.451:552
2.451:512
2.451:494
2.452:488
2.452:513
2.452:545
2.452:547
2.452:527
2.455:487
2.455:464
2.455:454
2.455:476
2.455:497
2.455:544
2.455:549
2.456:520
2.456:512
2.471:512
2.475:509
2.476:506
2.476:502
2.476:509
2.476:507
2.476:507
2.476:484
2.476:475
2.476:484
2.476:494
2.480:475
2.480:465
2.480:470
2.480:474
2.480:492
2.480:473
2.480:453
2.480:455
2.481:465
2.484:459
2.484:483
2.484:473
2.484:457
2.485:445
2.485:454
2.485:458
2.485:459
2.485:460
2.485:453
2.504:444
2.504:437
2.504:438
2.504:471
2.505:532
2.505:551
2.505:527
2.505:506
2.508:490
2.508:468
2.508:456
2.509:456
2.509:463
2.509:475
2.509:484
2.509:444
2.509:414
2.512:411
2.513:434
2.513:443
2.513:472
2.513:494
2.513:496
2.513:472
2.513:470
2.513:465
2.513:492
2.516:489
2.516:469
2.516:468
2.533:468
2.533:437
2.533:433
2.533:468
2.533:472
2.533:487
2.533:498
2.537:512
2.537:503
2.537:485
2.537:482
2.537:474
2.538:442
2.538:451
2.538:459
2.538:461
2.541:463
2.541:450
2.541:454
2.541:450
2.542:439
2.542:439
2.542:451
2.542:493
2.542:512
2.542:535
2.545:574
2.545:618
2.545:687
2.545:741
2.561:779
2.562:807
2.562:838
2.562:870
2.566:907
2.566:952
2.566:989
2.566:989
2.566:989
2.566:988
2.566:990
2.566:988
2.566:989
2.570:989
2.570:990
2.570:989
2.570:991
2.570:968
2.570:924
2.570:887
2.570:835
2.570:777
2.570:719
2.574:648
2.574:562
2.574:504
2.574:478
2.574:435
2.574:369
2.574:294
2.590:294
2.590:237
2.590:208
2.594:197
2.594:217
2.594:245
2.594:292
2.595:321
2.595:323
2.595:311
2.595:299
2.595:307
2.599:316
2.599:347
2.599:405
2.599:435
2.599:442
2.599:434
2.599:431
2.599:411
2.599:402
2.599:399
2.603:407
2.603:370
2.603:343
2.603:335
2.603:338
2.603:364
2.603:405
2.603:446
2.622:459
2.623:451
2.623:424
2.623:448
2.623:483
2.623:506
2.623:470
2.623:466
2.623:453
2.627:441
2.627:445
2.627:436
2.627:411
2.627:425
2.627:453
2.627:432
2.627:387
2.627:359
2.627:386
2.631:434
2.631:441
2.631:448
2.631:449
2.631:442
2.631:432
2.631:433
2.631:445
2.631:457
2.634:452
2.635:443
2.651:443
2.651:434
2.651:439
2.651:450
2.652:462
2.652:455
2.652:441
2.652:433
2.655:429
2.656:439
2.656:453
2.656:460
2.656:452
2.656:445
2.656:432
2.656:429
2.656:431
2.656:442
2.659:440
2.659:448
2.660:447
2.660:418
2.660:430
2.660:466
2.660:469
2.660:448
2.660:464
2.663:465
2.663:424
2.664:444
2.680:457
2.680:464
2.680:462
2.680:471
2.681:493
2.684:515
2.684:504
2.684:491
2.684:486
2.684:505
2.685:504
2.685:497
2.685:463
2.685:405
2.688:415
2.688:440
2.688:458
2.688:462
2.688:473
2.689:480
2.689:470
2.689:463
2.689:457
2.689:477
2.692:512
2.692:524
2.692:524
2.692:531
2.692:508
2.693:461
2.709:461
2.709:461
2.709:493
2.709:524
2.713:518
2.713:483
2.713:443
2.713:436
2.713:449
2.713:463
2.713:486
2.713:496
2.713:533
2.714:561
2.717:537
2.717:517
2.717:510
2.717:519
2.717:502
2.717:485
2.717:490
2.717:508
2.718:499
2.721:512
2.721:526
2.721:498
2.721:511
2.721:541
2.721:549
2.721:527
2.737:512
2.742:515
2.742:542
2.742:540
2.742:519
2.742:505
2.742:503
2.742:489
2.742:494
2.742:527
2.746:546
2.746:570
2.746:563
2.746:534
2.746:526
2.746:523
2.746:521
2.746:531
2.746:564
2.746:593
2.750:597
2.750:567
2.750:549
2.750:563
2.750:580
2.750:567
2.750:535
2.750:535
2.750:557
2.753:550
2.771:550
2.771:527
2.771:538
2.771:537
2.771:544
2.771:566
2.771:582
2.771:601
2.771:606
2.774:589
2.774:605
2.774:606
2.774:606
2.774:611
2.774:617
2.774:630
2.774:606
2.775:597
2.775:598
2.778:599
2.778:581
2.778:570
2.779:563
2.779:550
2.779:555
2.779:570
2.779:585
2.779:580
2.779:591
2.782:607
2.798:598
2.799:582
2.799:597
2.799:619
2.799:630
2.799:637
2.803:639
2.803:632
2.803:607
2.803:597
2.803:620
2.803:619
2.803:581
2.803:577
2.803:578
2.804:574
2.808:589
2.808:601
2.808:609
2.808:627
2.808:617
2.808:629
2.808:629
2.808:619
2.808:594
2.811:573
2.812:573
2.812:553
2.812:517
2.812:497
2.828:497
2.828:517
2.828:566
2.828:608
2.828:604
2.832:572
2.832:555
2.832:555
2.832:561
2.832:557
2.832:549
2.832:546
2.832:533
2.832:551
2.833:580
2.836:570
2.836:544
2.836:524
2.836:510
2.836:501
2.836:484
2.836:475
2.836:468
2.837:469
2.840:484
2.840:488
2.840:494
2.840:497
2.840:437
2.840:411
2.856:428
2.856:445
2.861:444
2.861:430
2.861:431
2.861:428
2.861:426
2.862:429
2.862:427
2.862:430
2.862:434
2.862:434
2.865:425
2.865:405
2.865:385
2.865:387
2.865:379
2.865:353
2.865:362
2.865:418
2.866:451
2.869:457
2.869:416
2.869:363
2.869:364
2.869:428
2.869:473
2.869:458
2.870:400
2.870:383
2.885:383
2.889:394
2.889:391
2.890:389
2.890:408
2.890:394
2.890:366
2.890:344
2.890:343
2.890:364
2.890:396
2.894:409
2.894:418
2.894:415
2.894:408
2.894:412
2.894:417
2.894:420
2.894:406
2.895:410
2.897:400
2.897:383
2.897:380
2.897:391
2.897:397
2.897:419
2.897:437
2.898:434
2.898:400
2.898:404
2.917:400
2.917:378
2.917:374
2.918:389
2.918:405
2.918:409
2.918:410
2.918:414
2.921:419
2.921:432
2.922:434
2.922:444
2.922:437
2.922:404
2.922:400
2.922:404
2.922:398
2.927:409
2.927:400
2.927:359
2.927:349
2.927:394
2.927:419
2.927:424
2.927:450
2.927:470
2.927:454
2.930:452
2.930:460
2.930:455
2.946:455
2.946:433
2.946:424
2.946:442
2.946:455
2.947:452
2.947:455
2.950:457
2.950:449
2.951:444
2.951:446
2.951:439
2.951:428
2.951:429
2.951:446
2.951:456
2.954:456
2.955:447
2.955:436
2.955:426
2.955:406
2.955:417
2.955:431
2.955:452
2.956:464
2.956:465
2.958:465
2.959:470
2.959:457
2.959:459
2.975:464
2.975:469
2.975:478
2.975:488
2.979:487
2.979:464
2.979:436
2.979:438
2.979:459
2.979:479
2.980:478
2.980:478
2.980:474
2.983:462
2.983:446
2.983:435
2.983:446
2.983:463
2.984:481
2.984:447
2.984:393
2.984:380
2.984:377
2.987:391
2.987:425
2.987:434
2.987:438
2.987:446
2.987:468
2.988:477
3.003:477
3.003:459
3.003:463
3.007:483
3.008:505
3.008:505
3.008:501
3.008:487
3.008:473
3.008:458
3.008:463
3.008:455
3.012:436
3.012:459
3.012:465
3.012:474
3.012:484
3.012:486
3.012:484
3.013:468
3.013:447
3.013:458
3.017:473
3.017:483
3.017:490
3.017:503
3.017:486
3.017:470
3.017:456
3.017:461
3.036:468
3.036:462
3.036:462
3.036:461
3.037:493
3.037:532
3.037:534
3.037:515
3.037:496
3.040:482
3.040:491
3.041:490
3.041:510
3.041:506
3.041:472
3.041:448
3.041:427
3.041:416
3.044:433
3.044:439
3.044:464
3.045:484
3.045:472
3.045:467
3.045:457
3.045:440
3.045:430
3.045:437
3.049:455
3.049:497
3.065:497
3.065:518
3.065:473
3.065:430
3.066:425
3.066:414
3.066:406
3.066:423
3.070:465
3.070:508
3.070:523
3.070:512
3.070:488
3.070:460
3.071:465
3.071:486
3.071:494
3.071:484
3.073:480
3.073:470
3.074:455
3.074:447
3.074:460
3.074:462
3.074:460
3.074:438
3.074:435
3.077:471
3.077:479
3.077:469
3.094:459
3.094:469
3.094:475
3.094:478
3.094:468
3.097:479
3.098:471
3.098:487
3.098:485
3.098:457
3.098:451
3.098:477
3.098:491
3.098:480
3.102:455
3.102:466
3.102:478
3.102:477
3.102:471
3.102:465
3.102:471
3.102:488
3.102:487
3.102:495
3.106:518
3.106:502
3.106:480
3.106:485
3.106:487
3.106:482
3.122:482
3.122:492
3.122:514
3.122:503
3.127:470
3.127:461
3.127:465
3.127:467
3.127:472
3.127:481
3.127:474
3.127:486
3.127:474
3.127:483
3.130:489
3.130:495
3.130:515
3.130:534
3.130:530
3.131:516
3.131:522
3.131:520
3.131:507
3.134:494
3.135:472
3.135:449
3.135:454
3.135:441
3.135:430
3.135:435
3.150:471
3.155:506
3.155:518
3.155:516
3.155:497
3.155:482
3.155:473
3.155:473
3.155:461
3.155:464
3.159:474
3.160:480
3.160:487
3.160:484
3.160:526
3.161:582
3.161:581
3.161:543
3.161:519
3.161:527
3.163:520
3.163:519
3.163:496
3.164:498
3.164:510
3.164:519
3.164:515
3.164:523
3.164:533
3.167:527
3.184:527
3.184:518
3.184:516
3.184:510
3.184:520
3.184:522
3.184:517
3.184:524
3.185:513
3.188:486
3.188:465
3.188:449
3.188:476
3.188:514
3.188:533
3.188:502
3.188:490
3.188:501
3.189:509
3.192:495
3.192:486
3.192:480
3.192:479
3.192:485
3.192:490
3.192:469
3.193:455
3.193:465
3.193:464
3.196:457
3.212:458
3.213:447
3.213:433
3.213:438
3.213:461
3.213:468
3.217:450
3.217:454
3.217:457
3.217:455
3.217:448
3.217:449
3.217:444
3.217:444
3.217:452
3.217:448
3.221:465
3.221:475
3.221:450
3.221:457
3.221:478
3.221:467
3.221:458
3.221:470
3.221:476
3.225:489
3.225:494
3.225:469
3.225:439
3.225:432
3.241:432
3.241:467
3.241:504
3.241:501
3.241:495
3.245:469
3.245:447
3.245:423
3.246:430
3.246:468
3.246:502
3.246:514
3.246:519
3.246:510
3.246:469
3.249:441
3.250:435
3.250:444
3.250:462
3.250:472
3.250:470
3.250:441
3.250:428
3.250:436
3.253:435
3.253:421
3.254:416
3.254:416
3.254:422
3.254:432
3.270:428
3.270:432
3.274:430
3.274:427
3.274:443
3.274:480
3.274:527
3.274:565
3.275:597
3.275:644
3.275:683
3.275:718
3.278:766
3.278:823
3.278:865
3.278:878
3.278:891
3.279:927
3.279:990
3.279:989
3.279:989
3.282:987
3.282:988
3.282:989
3.282:989
3.283:988
3.283:988
3.283:991
3.283:973
3.283:941
3.298:941
3.303:892
3.303:893
3.303:878
3.303:804
3.303:689
3.303:593
3.303:530
3.303:494
3.303:462
3.303:400
3.307:323
3.307:239
3.307:207
3.307:215
3.307:244
3.307:265
3.307:277
3.308:299
3.308:332
3.310:345
3.310:333
3.310:328
3.310:313
3.310:330
3.310:333
3.311:358
3.311:372
3.311:397
3.311:444
3.331:460
3.331:447
3.331:448
3.331:448
3.331:444
3.331:447
3.331:436
3.331:421
3.335:414
3.335:422
3.335:435
3.335:431
3.335:428
3.335:423
3.335:414
3.335:371
3.335:369
3.339:371
3.339:386
3.339:394
3.339:396
3.339:391
3.339:414
3.339:439
3.339:444
3.339:399
3.339:379
3.343:398
3.343:439
3.343:466
3.359:466
3.359:485
3.359:491
3.359:451
3.360:416
3.360:419
3.360:409
3.363:404
3.363:414
3.364:427
3.364:428
3.364:399
3.364:410
3.364:440
3.364:457
3.364:449
3.368:433
3.368:440
3.368:462
3.368:465
3.368:443
3.368:430
3.368:426
3.368:426
3.368:437
3.368:445
3.371:436
3.372:442
3.372:453
3.372:442
3.388:441
3.388:449
3.388:453
3.392:457
3.392:465
3.392:444
3.392:438
3.392:456
3.393:455
3.393:462
3.393:475
3.393:508
3.393:529
3.396:518
3.396:486
3.396:464
3.397:453
3.397:440
3.397:435
3.397:444
3.397:457
3.397:466
3.397:454
3.400:444
3.400:460
3.400:485
3.401:493
3.401:498
3.401:495
3.401:497
3.417:497
3.417:470
3.417:454
3.421:468
3.421:478
3.421:483
3.421:477
3.421:479
3.421:475
3.421:474
3.421:467
3.421:452
3.425:447
3.425:464
3.425:492
3.425:505
3.425:508
3.425:485
3.425:474
3.426:474
3.426:503
3.426:539
3.429:536
3.429:489
3.429:477
3.429:511
3.429:503
3.429:512
3.429:499
3.430:473
3.450:473
3.450:493
3.450:519
3.450:526
3.450:510
3.450:489
3.450:487
3.450:485
3.450:511
3.454:514
3.454:511
3.454:535
3.454:555
3.454:538
3.454:500
3.454:482
3.454:503
3.454:533
3.458:556
3.458:562
3.458:557
3.458:545
3.458:534
3.458:532
3.458:542
3.458:544
3.458:536
3.458:533
3.462:529
3.462:520
3.478:520
3.478:530
3.479:511
3.479:512
3.479:534
3.479:561
3.479:588
3.479:588
3.482:589
3.483:568
3.483:549
3.483:553
3.483:534
3.483:527
3.483:516
3.483:540
3.483:571
3.483:580
3.487:587
3.487:614
3.487:618
3.487:590
3.487:585
3.487:600
3.487:616
3.487:623
3.487:612
3.491:608
3.491:607
3.491:602
3.507:570
3.507:558
3.507:564
3.507:580
3.507:582
3.511:577
3.511:558
3.511:544
3.511:543
3.512:565
3.512:591
3.512:593
3.512:608
3.512:620
3.515:631
3.515:636
3.515:602
3.515:578
3.515:596
3.515:607
3.515:606
3.516:583
3.516:568
3.516:579
3.519:578
3.519:611
3.519:612
3.519:588
3.519:601
3.519:596
3.535:596
3.536:592
3.536:602
3.536:616
3.540:617
3.540:585
3.540:583
3.540:592
3.540:607
3.540:624
3.540:620
3.541:594
3.541:567
3.544:553
3.544:551
3.544:550
3.544:559
3.544:563
3.544:571
3.544:575
3.545:572
3.545:566
3.545:556
3.548:539
3.548:534
3.548:552
3.548:564
3.548:552
3.548:527
3.548:528
3.564:510
3.569:480
3.569:509
3.569:527
3.569:513
3.569:477
3.569:456
3.569:446
3.569:439
3.570:434
3.573:451
3.573:460
3.573:473
3.573:486
3.573:479
3.573:466
3.573:449
3.573:432
3.573:427
3.573:428
3.577:436
3.577:443
3.577:415
3.577:376
3.577:344
3.577:388
3.577:430
3.577:442
3.577:419
3.580:416
3.597:416
3.597:391
3.597:362
3.597:373
3.597:393
3.597:386
3.598:377
3.598:368
3.598:355
3.601:355
3.601:378
3.601:398
3.601:403
3.601:398
3.601:401
3.602:404
3.602:396
3.602:382
3.602:374
3.605:381
3.606:388
3.606:405
3.606:406
3.606:399
3.606:393
3.606:384
3.606:397
3.606:377
3.609:387
3.609:376
3.626:392
3.626:396
3.626:401
3.626:377
3.626:372
3.626:393
3.630:391
3.630:399
3.630:406
3.630:393
3.630:410
3.630:435
3.631:440
3.631:438
3.631:439
3.631:442
3.634:457
3.634:472
3.634:479
3.634:479
3.634:480
3.634:454
3.635:441
3.635:444
3.635:446
3.639:399
3.639:372
3.639:371
3.639:383
3.639:389
3.655:389
3.655:383
3.655:361
3.655:343
3.655:340
3.659:360
3.659:396
3.659:427
3.659:427
3.659:412
3.660:421
3.660:443
3.660:439
3.660:430
3.660:416
3.663:422
3.663:466
3.663:466
3.663:451
3.664:413
3.664:402
3.664:432
3.664:446
3.664:438
3.667:424
3.667:417
3.667:421
3.667:434
3.667:432
3.667:428
3.683:428
3.683:445
3.688:459
3.688:453
3.688:448
3.688:443
3.689:431
3.689:419
3.689:426
3.689:439
3.689:421
3.689:418
3.692:437
3.692:437
3.692:450
3.692:474
3.692:461
3.692:442
3.693:443
3.693:468
3.693:473
3.696:477
3.696:477
3.696:470
3.696:453
3.697:473
3.697:466
3.697:437
3.697:437
3.697:455
3.712:455
3.717:466
3.717:463
3.717:447
3.717:440
3.717:459
3.717:457
3.718:452
3.718:472
3.718:499
3.718:486
3.720:465
3.721:468
3.721:480
3.721:475
3.721:467
3.721:477
3.721:470
3.721:456
3.722:447
3.724:429
3.725:428
3.725:439
3.725:449
3.725:445
3.725:446
3.725:458
3.726:462
3.726:471
3.726:480
3.745:476
3.745:477
3.745:486
3.746:504
3.746:513
3.746:500
3.746:476
3.746:464
3.749:453
3.749:426
3.749:420
3.750:416
3.750:415
3.750:418
3.750:437
3.750:479
3.750:501
3.754:510
3.754:514
3.754:470
3.754:430
3.754:427
3.754:470
3.755:497
3.755:482
3.755:459
3.755:486
3.757:500
3.757:473
3.757:443
3.774:443
3.774:426
3.774:442
3.774:489
3.774:501
3.774:493
3.775:472
3.778:462
3.778:473
3.778:481
3.778:478
3.779:472
3.779:467
3.779:468
3.779:465
3.779:450
3.782:436
3.782:427
3.782:433
3.782:450
3.782:473
3.783:489
3.783:478
3.783:493
3.783:484
3.783:458
3.786:441
3.786:461
3.786:478
3.786:481
3.802:474
3.802:451
3.802:444
3.807:477
3.807:497
3.807:491
3.807:490
3.807:489
3.807:482
3.807:457
3.807:445
3.807:447
3.808:455
3.811:462
3.811:455
3.811:481
3.811:465
3.811:446
3.811:465
3.812:476
3.812:477
3.812:483
3.812:481
3.814:453
3.815:444
3.815:470
3.815:478
3.815:469
3.815:473
3.815:477
3.831:477
3.831:475
3.831:505
3.835:524
3.835:509
3.835:512
3.835:520
3.836:499
3.836:484
3.836:439
3.836:405
3.836:393
3.839:402
3.839:425
3.839:439
3.840:468
3.840:481
3.840:484
3.840:503
3.840:498
3.840:475
3.840:463
3.843:458
3.843:461
3.843:468
3.844:481
3.844:490
3.844:485
3.844:496
3.844:469
3.864:467
3.864:494
3.864:506
3.864:500
3.864:468
3.864:464
3.864:490
3.864:486
3.865:469
3.868:484
3.868:488
3.868:493
3.868:494
3.868:512
3.868:502
3.868:474
3.869:443
3.869:446
3.871:468
3.871:501
3.871:513
3.872:473
3.872:456
3.872:443
3.872:477
3.872:507
3.872:520
3.872:494
3.876:488
3.876:520
3.892:520
3.892:529
3.893:510
3.893:496
3.893:487
3.893:489
3.893:512
3.893:501
3.896:515
3.896:526
3.896:525
3.896:525
3.896:525
3.896:517
3.897:496
3.897:504
3.897:522
3.897:544
3.900:555
3.900:532
3.900:528
3.900:542
3.900:548
3.901:546
3.901:543
3.901:555
3.901:559
3.904:557
3.905:530
3.905:517
3.921:516
3.921:512
3.921:512
3.921:507
3.921:509
3.925:500
3.925:493
3.925:492
3.925:478
3.926:460
3.926:430
3.926:459
3.926:497
3.926:485
3.929:470
3.929:486
3.929:518
3.929:517
3.930:497
3.930:485
3.930:493
3.930:496
3.930:497
3.930:493
3.933:501
3.933:510
3.933:486
3.933:452
3.933:435
3.933:414
3.949:414
3.949:419
3.949:420
3.949:431
3.953:443
3.954:444
3.954:464
3.954:489
3.954:477
3.954:442
3.955:431
3.955:430
3.955:435
3.958:432
3.958:435
3.958:453
3.959:464
3.959:441
3.959:420
3.959:425
3.959:428
3.960:441
3.960:463
3.962:497
3.962:520
3.962:519
3.963:515
3.963:508
3.963:477
3.963:455
3.978:457
3.983:468
3.983:460
3.983:461
3.983:462
3.984:457
3.984:447
3.984:433
3.984:439
3.985:465
3.986:491
3.987:503
3.987:488
3.987:474
3.987:466
3.988:467
3.988:464
3.988:470
3.988:474
3.989:466
3.991:439
3.991:429
3.991:421
3.991:386
3.991:379
3.991:400
3.992:438
3.992:444
3.992:429
3.994:433
4.011:433
4.011:462
4.011:501
4.012:570
4.012:648
4.012:696
4.013:729
4.013:742
4.013:771
4.015:814
4.015:838
4.015:877
4.016:934
4.016:987
4.016:989
4.016:990
4.017:988
4.017:990
4.017:988
4.019:987
4.019:988
4.020:987
4.020:988
4.020:990
4.020:967
4.021:926
4.021:899
4.021:861
4.023:788
4.023:716
4.039:672
4.039:636
4.040:579
4.040:526
4.040:468
4.040:403
4.043:337
4.044:281
4.044:249
4.044:241
4.044:258
4.045:268
4.045:269
4.045:300
4.045:338
4.046:359
4.048:368
4.048:361
4.048:352
4.048:368
4.049:398
4.049:392
4.049:380
4.049:387
4.049:380
4.051:406
4.052:433
4.052:461
4.052:477
4.052:441
4.068:441
4.068:415
4.068:409
4.069:383
4.069:352
4.072:340
4.072:373
4.073:396
4.073:413
4.073:428
4.073:404
4.074:388
4.074:396
4.074:359
4.074:363
4.076:415
4.077:449
4.077:423
4.077:404
4.077:381
4.078:382
4.078:412
4.078:427
4.078:406
4.080:370
4.080:384
4.081:401
4.081:425
4.081:459
4.081:451
4.097:429
4.097:410
4.101:420
4.101:436
4.101:445
4.102:461
4.102:461
4.102:444
4.102:426
4.103:438
4.103:459
4.103:478
4.105:460
4.105:435
4.105:430
4.106:428
4.106:428
4.106:426
4.106:436
4.107:460
4.107:456
4.109:439
4.109:444
4.109:463
4.110:472
4.110:459
4.110:469
4.110:456
4.111:445
4.111:441
4.125:441
4.130:441
4.130:457
4.130:467
4.130:476
4.131:487
4.131:458
4.131:436
4.131:426
4.132:441
4.132:463
4.134:480
4.134:493
4.134:469
4.134:427
4.135:393
4.135:369
4.135:407
4.135:465
4.136:506
4.138:496
4.138:464
4.138:448
4.138:467
4.139:479
4.139:467
4.139:473
4.139:480
4.140:494
4.140:499
4.158:508
4.159:501
4.159:495
4.160:489
4.160:468
4.160:448
4.161:444
4.162:457
4.163:481
4.163:488
4.163:490
4.163:495
4.164:501
4.164:533
4.164:516
4.164:470
4.165:450
4.167:454
4.167:439
4.167:459
4.167:510
4.168:517
4.168:502
4.168:501
4.168:502
4.169:518
4.169:534
4.170:536
4.171:529
4.171:522
4.187:522
4.187:517
4.187:496
4.187:486
4.188:478
4.188:476
4.188:491
4.191:517
4.191:503
4.191:482
4.192:457
4.192:498
4.192:521
4.192:512
4.192:512
4.192:540
4.195:546
4.195:531
4.196:533
4.196:538
4.196:542
4.196:535
4.196:520
4.197:510
4.197:532
4.197:564
4.199:594
4.199:611
4.199:596
4.199:568
4.215:559
4.215:551
4.216:547
4.220:530
4.220:508
4.220:491
4.220:517
4.220:519
4.220:482
4.220:488
4.220:531
4.220:536
4.220:558
4.223:593
4.224:639
4.224:634
4.224:618
4.224:599
4.224:576
4.224:582
4.224:589
4.224:592
4.228:596
4.228:603
4.228:603
4.228:604
4.228:602
4.228:586
4.228:590
4.228:594
4.244:594
4.244:607
4.248:616
4.249:606
4.249:603
4.249:585
4.249:578
4.249:598
4.249:613
4.249:611
4.249:585
4.249:580
4.253:584
4.253:589
4.253:587
4.253:597
4.253:616
4.253:610
4.253:608
4.253:611
4.253:604
4.253:597
4.256:581
4.256:551
4.256:561
4.256:587
4.256:580
4.256:576
4.256:566
4.257:571
4.277:608
4.277:613
4.277:610
4.277:603
4.277:589
4.277:577
4.277:586
4.277:602
4.277:613
4.281:616
4.281:606
4.281:601
4.281:601
4.281:581
4.281:575
4.281:587
4.281:554
4.281:504
4.286:492
4.286:504
4.286:491
4.286:458
4.286:468
4.286:486
4.286:500
4.286:498
4.286:488
4.286:497
4.289:504
4.290:494
4.306:494
4.306:500
4.306:521
4.306:524
4.306:514
4.306:479
4.306:446
4.307:434
4.310:420
4.311:412
4.311:407
4.311:414
4.311:420
4.311:439
4.311:443
4.311:440
4.311:428
4.313:418
4.314:424
4.314:433
4.314:436
4.314:441
4.314:438
4.314:434
4.314:415
4.314:397
4.314:400
4.318:411
4.319:413
4.319:406
4.335:386
4.335:380
4.335:381
4.335:354
4.335:318
4.339:319
4.339:340
4.339:351
4.339:367
4.339:388
4.339:413
4.340:430
4.340:418
4.340:417
4.343:408
4.343:401
4.343:383
4.343:383
4.343:388
4.343:389
4.344:397
4.344:409
4.344:419
4.344:393
4.347:382
4.347:387
4.347:386
4.347:395
4.347:384
4.347:389
4.363:389
4.363:418
4.363:442
4.363:463
4.367:472
4.367:452
4.367:430
4.367:417
4.367:406
4.367:403
4.367:389
4.367:409
4.368:429
4.371:435
4.371:417
4.371:401
4.371:385
4.371:371
4.371:400
4.371:425
4.372:424
4.372:428
4.372:423
4.376:405
4.376:411
4.376:379
4.376:353
4.376:401
4.376:427
4.376:428
4.392:437
4.396:434
4.396:417
4.396:398
4.396:392
4.397:400
4.397:422
4.397:436
4.397:430
4.397:428
4.400:448
4.400:468
4.400:459
4.401:439
4.401:441
4.401:451
4.401:440
4.401:435
4.401:425
4.401:438
4.405:421
4.405:418
4.405:443
4.405:459
4.405:447
4.405:434
4.406:430
4.406:430
4.406:443
4.408:433
4.425:433
4.425:419
4.425:434
4.425:444
4.425:448
4.426:457
4.426:445
4.426:435
4.426:441
4.428:452
4.428:453
4.428:440
4.428:423
4.429:419
4.429:431
4.429:446
4.429:467
4.429:470
4.429:467
4.433:464
4.433:473
4.433:488
4.433:483
4.433:442
4.433:410
4.434:401
4.434:426
4.434:458
4.437:485
4.437:499
4.453:489
4.453:467
4.453:446
4.454:420
4.454:420
4.454:419
4.457:428
4.457:455
4.458:460
4.458:447
4.458:451
4.458:453
4.459:486
4.459:500
4.459:490
4.459:495
4.461:487
4.461:464
4.462:472
4.462:477
4.462:454
4.462:446
4.463:451
4.463:471
4.463:442
4.465:453
4.465:451
4.465:438
4.465:433
4.465:433
4.481:433
4.481:467
4.481:478
4.482:476
4.482:476
4.486:441
4.486:430
4.486:447
4.486:477
4.486:489
4.486:471
4.486:458
4.486:455
4.486:483
4.486:509
4.490:506
4.490:520
4.490:532
4.490:501
4.490:477
4.490:472
4.490:495
4.490:513
4.490:478
4.494:436
4.494:400
4.494:372
4.494:364
4.494:404
4.494:463
4.510:489
4.510:466
4.514:458
4.514:452
4.514:447
4.514:455
4.515:467
4.515:459
4.515:446
4.515:443
4.515:456
4.515:466
4.518:469
4.518:468
4.518:468
4.518:468
4.519:477
4.519:499
4.519:500
4.519:519
4.519:477
4.522:451
4.522:452
4.522:452
4.522:452
4.522:463
4.523:491
4.523:487
4.523:470
4.523:469
4.538:469
4.543:476
4.543:468
4.543:441
4.543:433
4.543:445
4.543:462
4.543:460
4.543:457
4.543:451
4.543:457
4.547:469
4.547:461
4.547:472
4.547:467
4.547:478
4.547:471
4.547:450
4.547:448
4.547:440
4.551:437
4.551:478
4.551:522
4.552:525
4.552:476
4.552:458
4.552:463
4.552:454
4.552:461
4.552:471
4.571:477
4.571:466
4.572:476
4.572:493
4.572:500
4.572:501
4.572:499
4.576:497
4.576:481
4.576:464
4.576:453
4.576:449
4.576:453
4.577:458
4.577:457
4.577:461
4.577:519
4.581:538
4.581:553
4.581:556
4.581:539
4.581:507
4.581:476
4.581:468
4.581:461
4.581:433
4.581:410
4.583:442
4.584:470
4.584:441
4.600:441
4.600:425
4.600:459
4.600:505
4.600:497
4.600:453
4.601:445
4.604:466
4.604:493
4.604:498
4.604:505
4.605:515
4.605:503
4.605:494
4.605:497
4.605:498
4.609:487
4.609:468
4.610:462
4.610:466
4.610:458
4.610:465
4.610:473
4.610:484
4.610:497
4.610:503
4.613:512
4.613:511
4.613:508
4.613:513
4.629:520
4.629:506
4.629:499
4.634:490
4.634:469
4.634:485
4.634:492
4.634:491
4.634:500
4.634:519
4.635:533
4.635:542
4.635:531
4.638:509
4.638:484
4.638:487
4.638:500
4.638:519
4.638:535
4.638:546
4.638:554
4.639:553
4.641:544
4.641:506
4.641:502
4.642:514
4.642:522
4.642:537
4.642:530
4.642:514
4.657:514
4.657:508
4.662:476
4.662:458
4.662:477
4.662:494
4.662:501
4.662:504
4.662:505
4.662:497
4.662:469
4.662:434
4.667:426
4.667:454
4.667:474
4.667:483
4.667:468
4.667:466
4.667:481
4.667:513
4.667:533
4.667:538
4.670:533
4.670:533
4.670:532
4.670:517
4.670:498
4.670:482
4.670:473
4.670:471
4.690:479
4.690:482
4.690:464
4.690:459
4.691:474
4.691:465
4.691:439
4.691:438
4.691:438
4.694:442
4.695:458
4.695:470
4.695:468
4.695:468
4.695:451
4.695:437
4.695:440
4.695:467
4.699:460
4.699:455
4.699:444
4.700:448
4.700:470
4.700:462
4.700:450
4.700:439
4.700:452
4.700:458
4.703:470
4.703:464
4.719:464
4.719:467
4.720:468
4.720:464
4.720:467
4.720:487
4.720:499
4.720:501
4.723:498
4.723:485
4.724:480
4.724:470
4.724:455
4.724:454
4.724:472
4.724:454
4.724:446
4.728:444
4.728:426
4.728:439
4.728:469
4.728:471
4.728:462
4.728:442
4.728:433
4.728:429
4.729:438
4.731:439
4.731:447
4.731:468
4.747:500
4.747:549
4.748:605
4.748:648
4.748:699
4.752:739
4.752:767
4.752:792
4.752:834
4.752:884
4.752:954
4.752:990
4.752:989
4.752:989
4.757:989
4.757:989
4.757:987
4.757:987
4.757:987
4.757:989
4.757:989
4.757:990
4.757:990
4.757:965
4.760:918
4.760:875
4.760:783
4.760:702
4.760:668
4.760:632
4.776:632
4.776:593
4.776:521
4.776:474
4.780:424
4.780:359
4.781:311
4.781:285
4.781:277
4.781:286
4.781:289
4.781:271
4.781:267
4.785:279
4.785:304
4.785:330
4.785:340
4.785:347
4.785:361
4.785:394
4.785:420
4.785:443
4.785:432
4.789:427
4.789:418
4.789:389
4.789:380
4.789:379
4.789:367
4.789:348
4.805:362
4.809:391
4.809:409
4.809:393
4.809:394
4.809:401
4.809:417
4.810:428
4.810:401
4.810:387
4.813:391
4.813:403
4.813:408
4.814:433
4.814:438
4.814:426
4.814:403
4.814:400
4.814:408
4.814:418
4.817:433
4.817:439
4.817:446
4.817:440
4.817:418
4.818:411
4.818:411
4.818:396
4.818:397
4.822:428
4.838:428
4.838:450
4.838:450
4.838:446
4.838:436
4.838:388
4.838:384
4.838:394
4.838:431
4.843:453
4.843:462
4.843:457
4.843:434
4.843:431
4.843:451
4.843:449
4.843:452
4.843:461
4.843:476
4.847:480
4.847:474
4.847:460
4.847:443
4.847:443
4.847:450
4.847:446
4.847:412
4.847:406
4.851:445
4.851:484
4.866:517
4.866:498
4.866:471
4.866:469
4.867:488
4.867:510
4.871:502
4.871:489
4.871:482
4.871:471
4.871:438
4.871:440
4.871:472
4.871:465
4.871:432
4.872:423
4.874:427
4.874:429
4.875:430
4.875:436
4.875:451
4.875:473
4.875:478
4.875:473
4.875:485
4.879:494
4.879:480
4.879:455
4.879:474
4.879:484
4.895:484
4.895:491
4.895:493
4.895:484
4.895:480
4.900:479
4.900:483
4.900:477
4.900:483
4.900:482
4.900:463
4.900:471
4.900:469
4.900:481
4.900:490
4.903:498
4.903:510
4.904:471
4.904:472
4.904:494
4.904:496
4.904:498
4.904:525
4.904:537
4.908:544
4.908:533
4.908:496
4.908:487
4.908:501
4.909:525
4.924:536
4.924:547
4.929:537
4.929:540
4.929:534
4.929:523
4.929:517
4.929:509
4.929:503
4.929:507
4.930:504
4.932:493
4.932:501
4.932:508
4.932:532
4.932:532
4.932:529
4.932:519
4.932:523
4.932:531
4.932:536
4.937:544
4.937:543
4.937:537
4.937:507
4.937:515
4.937:536
4.937:574
4.937:576
4.937:558
4.952:558
4.957:526
4.957:511
4.957:535
4.957:561
4.957:587
4.957:603
4.957:590
4.957:567
4.957:555
4.957:547
4.960:547
4.960:552
4.961:565
4.961:567
4.961:562
4.961:561
4.961:586
4.961:598
4.961:600
4.966:610
4.966:639
4.966:639
4.966:608
4.966:571
4.966:578
4.966:583
4.966:563
4.966:572
4.966:574
4.985:554
4.985:548
4.985:563
4.985:587
4.985:617
4.985:615
4.985:614
4.990:586
4.990:561
4.990:586
4.990:595
4.990:603
4.990:628
4.990:634
4.991:621
4.991:608
4.991:594
4.994:600
4.994:592
4.994:578
4.994:577
4.994:598
4.994:598
4.994:634
4.994:661
4.994:662
4.998:663
4.998:654
4.998:631
4.998:616
5.014:616
5.014:597
5.014:548
5.014:521
5.015:545
5.015:558
5.015:598
5.018:603
5.018:568
5.019:546
5.019:550
5.019:571
5.019:576
5.019:565
5.019:542
5.019:526
5.023:530
5.023:546
5.023:558
5.023:553
5.023:557
5.023:535
5.023:498
5.023:491
5.023:493
5.023:494
5.026:529
5.026:556
5.026:527
5.026:468
5.042:451
5.042:475
5.042:481
5.046:494
5.047:490
5.047:472
5.047:463
5.047:432
5.047:438
5.047:440
5.047:437
5.047:406
5.047:418
5.050:440
5.051:447
5.051:436
5.051:418
5.051:395
5.051:375
5.051:382
5.051:401
5.051:406
5.055:393
5.055:381
5.055:371
5.055:371
5.055:367
5.055:383
5.055:385
5.055:386
5.071:386
5.071:378
5.075:386
5.075:408
5.075:413
5.075:426
5.075:416
5.075:405
5.076:384
5.076:388
5.076:436
5.076:420
5.079:394
5.079:393
5.079:397
5.079:394
5.080:395
5.080:379
5.080:369
5.080:386
5.080:392
5.083:363
5.083:333
5.083:343
5.083:367
5.084:393
5.084:389
5.084:408
5.084:408
5.084:402
5.104:409
5.104:404
5.104:370
5.104:326
5.104:357
5.104:403
5.104:438
5.104:437
5.104:432
5.108:429
5.108:434
5.108:450
5.108:449
5.108:428
5.108:404
5.108:388
5.108:377
5.109:364
5.112:361
5.112:374
5.112:391
5.112:419
5.113:442
5.113:438
5.113:440
5.113:460
5.113:463
5.113:449
5.116:438
5.116:437
5.133:437
5.133:422
5.133:430
5.133:414
5.133:390
5.133:386
5.133:385
5.133:398
5.137:419
5.137:434
5.137:428
5.137:433
5.137:438
5.137:422
5.137:415
5.137:430
5.137:435
5.141:446
5.141:451
5.141:434
5.141:421
5.141:425
5.141:432
5.141:443
5.141:446
5.141:442
5.142:426
5.145:430
5.145:449
5.145:465
5.161:475
5.161:461
5.161:454
5.161:455
5.162:473
5.165:476
5.165:450
5.166:440
5.166:438
5.166:429
5.166:440
5.166:459
5.166:468
5.166:470
5.170:475
5.170:471
5.170:448
5.170:427
5.170:426
5.170:453
5.170:473
5.170:472
5.170:470
5.170:459
5.173:445
5.174:448
5.174:465
5.174:465
5.174:449
5.174:436
5.190:436
5.190:427
5.190:430
5.190:445
5.194:458
5.194:460
5.194:436
5.194:424
5.195:439
5.195:455
5.195:460
5.195:477
5.195:481
5.198:475
5.198:471
5.198:468
5.199:457
5.199:455
5.199:463
5.199:464
5.199:455
5.199:457
5.199:468
5.202:472
5.202:473
5.202:473
5.202:468
5.203:464
5.203:448
5.203:443
5.218:453
5.223:454
5.223:470
5.223:460
5.223:437
5.223:428
5.223:435
5.223:435
5.223:435
5.224:446
5.227:460
5.227:470
5.227:476
5.227:485
5.227:485
5.227:497
5.227:485
5.228:492
5.228:457
5.228:441
5.231:463
5.231:503
5.231:520
5.231:514
5.231:485
5.231:469
5.232:474
5.232:491
5.232:493
5.234:469
5.251:469
5.251:454
5.251:462
5.251:475
5.252:484
5.252:470
5.252:446
5.252:426
5.252:419
5.255:441
5.255:454
5.255:474
5.256:492
5.256:481
5.256:484
5.256:497
5.256:471
5.256:459
5.256:413
5.259:389
5.260:421
5.260:439
5.260:461
5.261:477
5.261:483
5.261:508
5.261:509
5.261:498
5.263:493
5.263:489
5.280:486
5.280:492
5.280:492
5.280:482
5.280:469
5.280:445
5.284:446
5.284:463
5.284:478
5.284:495
5.285:492
5.285:476
5.285:463
5.285:461
5.285:463
5.285:463
5.288:458
5.288:451
5.288:447
5.288:448
5.289:460
5.289:454
5.289:464
5.289:474
5.289:471
5.292:445
5.292:455
5.292:486
5.292:516
5.292:505
5.309:505
5.309:475
5.309:428
5.309:449
5.309:470
5.313:466
5.313:473
5.313:499
5.313:492
5.313:479
5.313:483
5.313:496
5.313:496
5.314:481
5.314:482
5.317:486
5.317:477
5.317:482
5.317:490
5.317:489
5.317:473
5.317:457
5.318:448
5.318:452
5.321:437
5.321:425
5.321:428
5.321:436
5.321:452
5.321:476
5.337:487
5.338:485
5.342:467
5.342:454
5.342:457
5.342:463
5.342:473
5.342:478
5.343:478
5.343:472
5.343:471
5.346:473
5.346:472
5.346:479
5.346:492
5.346:512
5.347:539
5.347:482
5.347:410
5.347:399
5.347:440
5.350:491
5.350:511
5.350:513
5.350:521
5.350:515
5.350:507
5.350:500
5.350:487
5.351:467
5.366:467
5.370:457
5.370:464
5.371:481
5.371:482
5.371:500
5.371:520
5.371:529
5.371:515
5.371:527
5.371:522
5.374:510
5.374:513
5.375:515
5.375:521
5.375:511
5.375:500
5.375:519
5.375:552
5.375:539
5.378:554
5.379:559
5.379:550
5.379:554
5.379:568
5.379:578
5.379:574
5.379:571
5.379:571
5.379:557
5.399:539
5.399:501
5.399:472
5.400:473
5.400:474
5.400:471
5.400:482
5.403:502
5.403:505
5.403:502
5.403:508
5.404:507
5.404:508
5.404:511
5.404:487
5.404:462
5.404:480
5.407:487
5.407:484
5.407:467
5.408:451
5.408:431
5.408:438
5.408:456
5.408:458
5.408:459
5.411:462
5.411:469
5.411:478
5.411:484
5.428:484
5.428:469
5.428:438
5.428:436
5.428:445
5.428:452
5.432:411
5.432:385
5.432:410
5.433:445
5.433:468
5.433:488
5.433:497
5.433:493
5.433:503
5.433:500
5.436:484
5.436:475
5.436:460
5.437:454
5.437:457
5.437:448
5.437:461
5.437:466
5.437:448
5.437:453
5.440:453
5.440:456
5.440:463
5.440:470
5.456:465
5.456:458
5.457:454
5.461:467
5.461:494
5.461:501
5.461:493
5.461:504
5.461:493
5.461:475
5.461:460
5.461:450
5.461:495
5.465:522
5.465:528
5.465:520
5.465:497
5.466:492
5.466:499
5.466:483
5.466:473
5.466:465
5.469:451
5.469:441
5.469:435
5.469:435
5.469:434
5.470:433
5.470:432
5.470:428
5.485:428
5.485:430
5.489:447
5.490:466
5.490:488
5.490:508
5.490:549
5.490:609
5.490:667
5.490:726
5.490:778
5.490:796
5.493:831
5.493:888
5.493:908
5.493:940
5.493:974
5.493:990
5.493:988
5.493:989
5.494:988
5.497:987
5.497:986
5.497:988
5.497:990
5.497:989
5.497:989
5.497:964
5.498:940
5.498:908
5.517:879
5.518:848
5.518:779
5.518:705
5.518:627
5.518:558
5.518:503
5.518:457
5.518:403
5.521:330
5.522:266
5.522:256
5.522:265
5.522:284
5.522:287
5.522:299
5.522:312
5.522:298
5.527:293
5.527:322
5.527:356
5.527:383
5.527:399
5.527:389
5.527:380
5.527:384
5.527:396
5.527:399
5.529:404
5.530:398
5.546:398
5.546:405
5.546:405
5.546:399
5.546:399
5.547:390
5.547:381
5.547:392
5.550:406
5.550:391
5.550:397
5.550:418
5.551:428
5.551:432
5.551:421
5.551:409
5.551:407
5.554:411
5.554:418
5.554:427
5.555:414
5.555:392
5.555:398
5.555:402
5.555:414
5.555:428
5.555:442
5.559:444
5.559:432
5.559:427
5.575:425
5.575:431
5.575:441
5.575:450
5.575:453
5.579:450
5.579:451
5.579:451
5.579:447
5.579:446
5.579:439
5.579:446
5.580:439
5.580:421
5.583:409
5.583:405
5.583:430
5.583:444
5.583:439
5.583:391
5.583:347
5.584:379
5.584:442
5.584:445
5.587:455
5.587:478
5.587:495
5.587:496
5.587:472
5.587:456
5.603:456
5.603:460
5.603:471
5.603:479
5.607:479
5.608:478
5.608:457
5.608:443
5.608:451
5.608:458
5.608:461
5.608:453
5.608:446
5.612:452
5.612:453
5.612:449
5.612:466
5.612:499
5.612:512
5.612:511
5.612:509
5.612:474
5.612:458
5.616:440
5.616:433
5.616:423
5.616:438
5.616:455
5.616:457
5.616:451
5.632:459
5.636:448
5.636:468
5.636:473
5.636:466
5.637:491
5.637:475
5.637:449
5.637:480
5.637:503
5.641:508
5.641:514
5.641:511
5.641:498
5.641:501
5.641:500
5.641:493
5.641:488
5.641:507
5.641:507
5.644:500
5.644:495
5.644:495
5.644:507
5.645:511
5.645:507
5.645:495
5.645:497
5.645:497
5.648:496
5.665:496
5.665:498
5.665:487
5.665:488
5.665:499
5.665:517
5.665:523
5.665:527
5.665:537
5.669:549
5.669:546
5.669:524
5.669:522
5.669:508
5.669:500
5.669:514
5.670:531
5.670:541
5.670:538
5.673:520
5.673:493
5.673:491
5.673:500
5.673:510
5.673:549
5.673:563
5.674:562
5.674:547
5.677:543
5.677:562
5.693:591
5.694:563
5.694:503
5.694:498
5.694:509
5.694:536
5.698:558
5.698:577
5.698:579
5.698:592
5.698:602
5.698:579
5.698:565
5.698:570
5.698:577
5.702:577
5.702:570
5.702:566
5.702:581
5.702:583
5.702:583
5.702:570
5.702:549
5.702:544
5.702:556
5.706:575
5.706:591
5.706:593
5.706:598
5.706:607
5.722:607
5.722:604
5.722:601
5.722:608
5.722:624
5.726:627
5.726:618
5.726:622
5.726:634
5.727:608
5.727:555
5.727:532
5.727:539
5.727:567
5.727:601
5.730:626
5.730:633
5.730:626
5.730:601
5.731:581
5.731:580
5.731:593
5.731:605
5.731:610
5.734:595
5.734:598
5.734:618
5.734:632
5.734:629
5.735:633
5.750:620
5.750:612
5.755:608
5.755:597
5.755:584
5.755:577
5.755:588
5.755:600
5.755:611
5.756:602
5.756:576
5.759:534
5.759:542
5.759:586
5.759:585
5.759:594
5.760:584
5.760:590
5.760:589
5.760:584
5.760:581
5.763:577
5.763:543
5.763:520
5.763:504
5.763:490
5.764:497
5.764:507
5.764:489
5.764:482
5.779:482
5.784:466
5.784:457
5.784:473
5.784:475
5.784:471
5.784:455
5.784:443
5.784:452
5.784:463
5.788:492
5.788:483
5.788:462
5.788:462
5.788:455
5.788:432
5.788:428
5.788:424
5.788:417
5.788:418
5.792:423
5.792:412
5.792:402
5.792:408
5.792:420
5.792:407
5.792:379
5.792:358
5.792:364
5.792:368
5.812:381
5.812:393
5.812:384
5.813:381
5.813:399
5.813:420
5.813:417
5.816:414
5.816:424
5.816:415
5.817:421
5.817:422
5.817:398
5.817:371
5.817:378
5.817:384
5.817:382
5.820:379
5.821:376
5.821:388
5.821:392
5.821:393
5.821:390
5.821:384
5.821:378
5.821:383
5.824:389
5.824:389
5.824:392
5.824:402
5.841:402
5.841:409
5.841:399
5.841:402
5.841:402
5.841:406
5.845:402
5.845:384
5.845:376
5.845:382
5.846:399
5.846:416
5.846:415
5.846:400
5.846:379
5.846:401
5.849:440
5.849:459
5.849:456
5.849:468
5.850:436
5.850:374
5.850:347
5.850:365
5.850:393
5.853:411
5.853:425
5.853:429
5.853:410
5.853:393
5.869:400
5.870:407
5.870:395
5.874:398
5.874:398
5.874:396
5.874:412
5.874:427
5.874:424
5.874:427
5.874:427
5.874:439
5.874:437
5.878:426
5.878:415
5.878:404
5.878:414
5.878:430
5.879:444
5.879:449
5.879:451
5.879:445
5.882:437
5.882:438
5.882:438
5.882:441
5.882:455
5.882:462
5.882:445
5.882:429
5.898:429
5.898:421
5.903:395
5.903:367
5.903:368
5.903:399
5.903:418
5.903:460
5.903:495
5.903:493
5.903:462
5.903:442
5.907:437
5.907:426
5.907:438
5.907:451
5.907:465
5.907:476
5.907:486
5.907:480
5.907:467
5.911:473
5.911:478
5.911:496
5.911:481
5.911:461
5.911:443
5.911:473
5.911:474
5.911:440
5.931:398
5.931:393
5.931:415
5.931:435
5.931:450
5.932:461
5.932:487
5.932:516
5.932:522
5.935:509
5.935:498
5.935:477
5.936:466
5.936:454
5.936:451
5.936:453
5.936:463
5.936:479
5.939:473
5.939:462
5.940:459
5.940:469
5.940:480
5.940:470
5.940:451
5.940:456
5.940:466
5.940:465
5.943:469
5.943:464
5.960:464
5.960:438
5.960:436
5.960:469
5.960:492
5.961:512
5.961:497
5.961:472
5.964:450
5.964:449
5.964:460
5.964:469
5.964:465
5.964:452
5.965:440
5.965:426
5.965:411
5.968:405
5.968:419
5.968:449
5.968:470
5.968:484
5.969:471
5.969:458
5.969:468
5.969:470
5.969:472
5.972:497
5.972:502
5.972:477
5.989:409
5.989:389
5.989:402
5.989:453
5.989:514
5.993:513
5.993:481
5.993:451
5.993:459
5.993:495
5.993:532
5.993:515
5.993:487
5.993:484
5.997:497
5.997:513
5.997:514
5.997:490
5.997:476
5.997:468
5.997:437
5.997:430
5.998:454
5.998:484
6.001:475
6.001:442
6.001:450
6.001:466
6.001:477
6.001:480
6.017:480
6.017:462
6.017:464
6.017:473
6.022:482
6.022:477
6.022:457
6.022:460
6.022:468
6.022:469
6.022:474
6.022:468
6.022:450
6.026:446
6.026:451
6.026:447
6.026:433
6.026:445
6.026:447
6.026:460
6.026:473
6.026:504
6.026:499
6.030:488
6.030:482
6.030:474
6.030:466
6.030:448
6.030:435
6.030:429
6.050:460
6.050:471
6.050:497
6.050:487
6.051:479
6.051:465
6.051:434
6.051:400
6.051:413
6.051:435
6.054:473
6.054:489
6.055:506
6.055:516
6.055:523
6.055:516
6.055:511
6.055:520
6.055:509
6.055:503
6.058:505
6.058:502
6.059:467
6.059:458
6.059:453
6.059:448
6.059:455
6.059:480
6.059:502
6.062:516
6.079:516
6.079:509
6.079:487
6.079:470
6.079:464
6.079:465
6.079:468
6.080:463
6.080:459
6.083:449
6.083:473
6.083:490
6.083:496
6.083:495
6.084:481
6.084:469
6.084:460
6.084:464
6.084:479
6.087:469
6.087:450
6.087:446
6.087:447
6.087:448
6.088:451
6.088:450
6.088:455
6.088:494
6.091:519
6.091:532
6.108:535
6.108:520
6.108:513
6.108:508
6.108:490
6.108:477
6.112:503
6.112:492
6.112:468
6.112:432
6.112:447
6.112:472
6.112:474
6.112:479
6.112:486
6.116:494
6.116:495
6.116:486
6.116:484
6.116:477
6.116:480
6.116:483
6.116:478
6.116:472
6.117:470
6.120:479
6.120:498
6.120:504
6.120:513
6.120:513
6.135:513
6.135:499
6.136:494
6.136:494
6.136:488
6.140:485
6.140:495
6.140:513
6.140:534
6.140:526
6.140:524
6.140:519
6.140:518
6.140:511
6.140:521
6.144:541
6.144:548
6.144:550
6.144:530
6.144:515
6.145:508
6.145:502
6.145:496
6.145:489
6.148:512
6.148:527
6.148:530
6.148:520
6.148:505
6.148:498
6.164:499
6.164:493
6.168:507
6.168:514
6.168:520
6.169:522
6.169:525
6.169:528
6.169:532
6.169:520
6.169:502
6.172:493
6.172:509
6.173:510
6.173:478
6.173:441
6.173:423
6.173:394
6.173:431
6.173:467
6.173:480
6.176:469
6.177:448
6.177:442
6.177:469
6.177:506
6.177:513
6.177:492
6.177:463
6.177:452
6.193:452
6.197:442
6.197:429
6.197:439
6.197:460
6.197:476
6.197:475
6.197:465
6.198:448
6.198:469
6.201:487
6.201:483
6.201:500
6.201:509
6.201:521
6.201:534
6.202:523
6.202:521
6.202:511
6.202:497
6.205:477
6.205:465
6.205:458
6.205:457
6.206:450
6.206:433
6.206:410
6.206:402
6.206:420
6.206:470
6.226:488
6.226:472
6.226:453
6.226:450
6.226:457
6.226:474
6.226:454
6.230:463
6.230:496
6.230:496
6.230:479
6.230:478
6.230:480
6.230:465
6.230:446
6.230:445
6.230:462
6.234:476
6.234:476
6.234:465
6.234:441
6.234:417
6.234:417
6.234:414
6.234:416
6.235:443
6.238:491
6.238:542
6.238:589
6.238:631
6.254:631
6.254:678
6.255:726
6.255:759
6.255:811
6.255:850
6.259:902
6.259:923
6.259:925
6.259:959
6.259:988
6.259:989
6.259:989
6.260:988
6.260:989
6.260:989
6.263:988
6.263:987
6.263:989
6.263:989
6.263:988
6.263:972
6.263:912
6.263:843
6.263:790
6.267:733
6.267:662
6.267:613
6.267:594
6.267:542
6.283:470
6.283:386
6.283:319
6.288:272
6.288:260
6.288:244
6.288:271
6.288:288
6.288:290
6.288:299
6.288:315
6.288:345
6.288:355
6.292:367
6.292:383
6.292:396
6.292:404
6.292:395
6.292:393
6.292:400
6.292:401
6.292:401
6.296:409
6.296:431
6.296:424
6.296:409
6.296:410
6.296:411
6.296:438
6.296:447
6.312:447
6.312:449
6.316:423
6.316:394
6.317:366
6.317:346
6.317:347
6.317:385
6.317:401
6.317:388
6.317:364
6.317:351
6.321:358
6.321:368
6.321:403
6.321:421
6.321:400
6.321:383
6.321:385
6.321:440
6.321:448
6.324:461
6.324:471
6.324:474
6.324:459
6.325:451
6.325:431
6.325:435
6.325:415
6.325:402
6.345:421
6.345:428
6.345:419
6.345:417
6.345:399
6.345:406
6.345:423
6.345:438
6.345:437
6.349:447
6.349:470
6.349:460
6.349:445
6.349:449
6.349:469
6.349:479
6.349:474
6.349:461
6.353:452
6.353:450
6.353:448
6.353:443
6.353:433
6.353:427
6.353:418
6.353:456
6.353:454
6.353:408
6.356:401
6.356:451
6.373:451
6.373:477
6.373:448
6.373:425
6.373:441
6.373:467
6.373:484
6.374:491
6.377:488
6.377:484
6.378:480
6.378:451
6.378:442
6.378:458
6.378:493
6.378:502
6.378:486
6.382:469
6.382:467
6.382:485
6.382:476
6.382:463
6.382:457
6.382:467
6.382:490
6.382:512
6.382:536
6.385:541
6.386:518
6.386:494
6.402:479
6.402:459
6.402:427
6.402:413
6.407:461
6.407:502
6.407:506
6.407:498
6.407:504
6.407:514
6.407:509
6.407:489
6.407:485
6.407:485
6.410:475
6.410:471
6.410:472
6.410:485
6.410:489
6.410:522
6.410:534
6.411:519
6.411:519
6.411:503
6.414:480
6.414:472
6.414:489
6.414:502
6.414:483
6.414:468
6.430:468
6.430:442
6.430:454
6.431:475
6.435:492
6.435:502
6.435:498
6.435:488
6.435:508
6.435:514
6.435:532
6.435:537
6.435:526
6.439:512
6.439:525
6.440:542
6.440:557
6.440:560
6.440:571
6.440:579
6.440:595
6.440:617
6.440:618
6.443:608
6.443:578
6.443:566
6.443:571
6.443:562
6.444:531
6.444:532
6.464:528
6.464:520
6.464:537
6.464:551
6.464:559
6.464:549
6.464:549
6.465:558
6.465:574
6.465:589
6.468:581
6.468:565
6.468:557
6.468:582
6.468:592
6.468:584
6.469:576
6.469:560
6.469:544
6.472:551
6.472:546
6.472:553
6.472:567
6.472:572
6.472:600
6.472:626
6.472:614
6.472:597
6.472:600
6.475:603
6.492:603
6.492:605
6.492:600
6.492:623
6.492:619
6.492:592
6.492:573
6.492:578
6.493:579
6.497:600
6.497:595
6.497:608
6.497:622
6.497:619
6.497:613
6.497:618
6.497:618
6.497:603
6.497:596
6.500:593
6.500:592
6.500:614
6.500:650
6.500:652
6.500:658
6.500:655
6.501:635
6.501:602
6.505:588
6.505:600
6.520:610
6.520:609
6.521:611
6.521:597
6.521:586
6.521:583
6.525:558
6.525:553
6.525:545
6.525:546
6.525:539
6.525:534
6.525:524
6.525:521
6.525:513
6.530:513
6.530:509
6.530:487
6.530:481
6.530:502
6.530:537
6.530:562
6.530:563
6.531:547
6.531:526
6.533:487
6.533:466
6.533:482
6.533:485
6.533:505
6.549:505
6.549:512
6.549:496
6.549:467
6.549:445
6.554:442
6.554:445
6.554:442
6.554:405
6.554:370
6.554:366
6.554:380
6.554:399
6.554:413
6.554:410
6.557:400
6.557:395
6.557:419
6.558:410
6.558:400
6.558:399
6.558:385
6.558:373
6.558:357
6.562:342
6.562:372
6.562:391
6.562:404
6.562:410
6.562:405
6.578:377
6.578:371
6.583:382
6.583:389
6.583:397
6.583:380
6.583:385
6.583:387
6.583:373
6.583:374
6.583:396
6.587:414
6.587:406
6.587:400
6.587:395
6.587:397
6.587:407
6.587:407
6.587:407
6.587:396
6.587:412
6.591:418
6.591:402
6.591:390
6.591:396
6.591:394
6.591:390
6.591:389
6.591:411
6.591:430
6.606:430
6.611:432
6.611:421
6.611:406
6.611:397
6.611:393
6.611:388
6.611:377
6.611:390
6.611:400
6.615:423
6.615:439
6.615:424
6.615:391
6.615:380
6.615:382
6.615:381
6.615:380
6.615:394
6.615:398
6.620:394
6.620:388
6.620:391
6.620:398
6.620:428
6.620:449
6.620:444
6.620:426
6.620:419
6.623:424
6.639:432
6.639:452
6.639:465
6.639:472
6.640:461
6.640:424
6.640:408
6.643:407
6.643:414
6.644:432
6.644:429
6.644:431
6.644:439
6.644:461
6.644:457
6.644:460
6.644:453
6.648:439
6.648:435
6.648:415
6.648:414
6.648:442
6.648:443
6.648:433
6.648:416
6.649:431
6.652:440
6.652:414
6.652:394
6.652:384
6.668:384
6.668:390
6.668:401
6.668:413
6.668:445
6.668:448
6.672:432
6.673:439
6.673:459
6.673:439
6.673:420
6.673:431
6.673:441
6.673:452
6.673:470
6.674:476
6.677:465
6.677:457
6.677:437
6.677:425
6.677:445
6.677:464
6.677:476
6.677:496
6.677:489
6.681:477
6.681:445
6.681:460
6.681:486
6.681:491
6.697:460
6.697:443
6.697:448
6.701:463
6.701:483
6.701:446
6.702:408
6.702:407
6.702:451
6.702:491
6.703:497
6.703:498
6.703:493
6.705:469
6.705:464
6.705:477
6.706:480
6.706:473
6.706:446
6.706:444
6.707:450
6.707:452
6.709:470
6.709:478
6.710:475
6.710:467
6.710:467
6.710:474
6.711:469
6.711:478
6.725:478
6.726:474
6.730:477
6.730:466
6.730:456
6.730:452
6.731:453
6.731:444
6.731:435
6.731:454
6.732:454
6.732:439
6.734:456
6.734:462
6.734:456
6.735:454
6.735:476
6.735:490
6.735:485
6.736:489
6.736:489
6.738:467
6.738:435
6.738:441
6.739:456
6.739:476
6.739:477
6.739:458
6.739:443
6.740:431
6.758:447
6.759:471
6.759:481
6.759:457
6.759:440
6.760:439
6.760:458
6.760:485
6.760:492
6.762:493
6.763:501
6.763:504
6.763:499
6.763:497
6.764:501
6.764:486
6.764:460
6.764:447
6.767:415
6.767:377
6.767:379
6.768:417
6.768:451
6.768:494
6.768:541
6.769:528
6.769:494
6.769:485
6.770:495
6.770:498
6.787:498
6.787:513
6.787:523
6.787:515
6.788:508
6.788:479
6.788:452
6.788:429
6.791:418
6.791:428
6.791:459
6.792:472
6.792:455
6.792:454
6.792:461
6.793:450
6.793:457
6.795:462
6.795:464
6.795:459
6.796:467
6.796:480
6.796:500
6.797:507
6.797:497
6.797:496
6.797:516
6.799:526
6.799:519
6.800:511
6.815:502
6.816:494
6.816:504
6.816:505
6.820:494
6.820:481
6.820:459
6.820:439
6.821:439
6.821:438
6.821:433
6.821:445
6.822:482
6.822:500
6.824:493
6.824:474
6.824:467
6.825:476
6.825:469
6.825:465
6.825:465
6.826:455
6.826:441
6.826:431
6.828:416
6.828:427
6.828:452
6.828:508
6.829:522
6.829:498
6.844:498
6.844:479
6.845:477
6.845:487
6.848:477
6.849:477
6.849:461
6.849:452
6.849:448
6.850:479
6.850:506
6.850:512
6.850:500
6.852:471
6.853:461
6.853:483
6.853:489
6.853:505
6.853:528
6.853:515
6.854:488
6.854:482
6.854:472
6.856:444
6.857:417
6.857:430
6.857:445
6.857:458
6.857:486
6.857:514
6.877:516
6.877:497
6.877:476
6.877:470
6.877:506
6.878:534
6.878:502
6.878:454
6.878:465
6.878:501
6.881:514
6.881:504
6.881:477
6.881:477
6.881:495
6.882:522
6.882:535
6.882:515
6.882:497
6.885:490
6.885:473
6.885:461
6.885:461
6.886:464
6.886:463
6.886:447
6.886:455
6.886:457
6.886:472
6.889:479
6.906:479
6.906:468
6.906:463
6.906:469
6.906:462
6.906:459
6.906:477
6.906:506
6.906:504
6.910:501
6.910:497
6.910:494
6.910:513
6.910:564
6.910:579
6.910:559
6.910:540
6.910:550
6.911:551
6.914:543
6.914:522
6.914:529
6.914:530
6.914:524
6.914:517
6.914:503
6.914:493
6.915:504
6.918:516
6.918:517
6.934:518
6.934:517
6.935:518
6.935:510
6.935:515
6.935:500
6.939:484
6.939:494
6.939:493
6.939:506
6.939:515
6.939:514
6.939:508
6.939:484
6.939:452
6.942:457
6.942:485
6.942:513
6.943:511
6.943:490
6.943:480
6.943:472
6.943:455
6.943:457
6.943:484
6.947:488
6.947:465
6.947:427
6.947:399
6.947:395
6.963:395
6.963:416
6.963:436
6.963:426
6.963:459
6.967:476
6.967:480
6.967:468
6.967:446
6.967:455
6.967:469
6.968:480
6.968:482
6.968:481
6.971:460
6.971:441
6.971:439
6.971:450
6.971:461
6.971:470
6.972:468
6.972:448
6.972:444
6.972:460
6.975:457
6.975:462
6.975:473
6.975:497
6.975:505
6.975:516
6.991:522
6.991:497
6.996:511
6.996:499
6.996:476
6.996:467
6.996:485
6.996:486
6.996:494
6.996:521
6.996:520
7.000:500
7.000:448
7.000:401
7.000:400
7.000:403
7.000:436
7.000:472
7.000:459
7.000:447
7.001:425
7.004:397
7.004:403
7.004:420
7.004:423
7.004:416
7.004:443
7.005:473
7.005:538
7.005:574
7.020:574
7.024:611
7.025:662
7.025:714
7.025:759
7.025:795
7.025:838
7.025:875
7.025:916
7.026:953
7.029:988
7.029:989
7.030:989
7.030:989
7.030:987
7.030:987
7.030:988
7.030:987
7.030:989
7.031:989
7.033:990
7.033:990
7.033:987
7.034:949
7.034:895
7.034:852
7.034:776
7.034:696
7.034:645
7.037:570
7.053:474
7.053:421
7.053:381
7.054:306
7.054:229
7.054:218
7.054:224
7.058:238
7.058:270
7.058:295
7.059:314
7.059:332
7.059:338
7.059:351
7.059:365
7.060:366
7.060:361
7.062:385
7.062:411
7.062:398
7.062:381
7.062:385
7.063:406
7.063:414
7.063:394
7.063:392
7.066:401
7.066:412
7.066:417
7.066:422
7.082:422
7.082:408
7.082:402
7.083:397
7.083:392
7.083:384
7.087:388
7.087:407
7.087:425
7.087:447
7.087:451
7.087:462
7.087:449
7.087:428
7.088:412
7.088:375
7.091:360
7.091:359
7.091:380
7.091:408
7.091:415
7.091:431
7.091:439
7.092:447
7.092:447
7.094:431
7.094:427
7.094:430
7.094:432
7.095:436
7.110:442
7.110:439
7.111:438
7.115:437
7.115:436
7.115:441
7.115:448
7.115:444
7.116:444
7.116:457
7.116:444
7.116:438
7.117:444
7.118:463
7.119:480
7.119:470
7.119:445
7.119:444
7.119:465
7.120:481
7.120:457
7.120:440
7.123:453
7.123:457
7.123:490
7.123:506
7.124:468
7.124:451
7.124:440
7.124:428
7.139:428
7.139:414
7.143:415
7.144:434
7.144:440
7.144:476
7.144:450
7.144:441
7.145:459
7.145:475
7.145:496
7.145:495
7.148:485
7.148:481
7.148:480
7.148:477
7.149:479
7.149:482
7.149:477
7.149:470
7.150:470
7.152:466
7.152:462
7.152:461
7.152:460
7.153:455
7.153:457
7.153:441
7.153:440
7.153:451
7.172:481
7.173:481
7.173:478
7.173:477
7.173:459
7.173:456
7.174:489
7.174:519
7.174:511
7.176:498
7.177:511
7.177:502
7.177:492
7.177:503
7.177:538
7.178:545
7.178:524
7.178:521
7.180:524
7.181:506
7.181:500
7.181:504
7.181:511
7.182:524
7.182:531
7.182:528
7.182:535
7.182:530
7.184:517
7.185:521
7.201:521
7.201:537
7.201:536
7.202:505
7.202:487
7.202:506
7.202:529
7.203:534
7.205:525
7.205:497
7.206:491
7.206:516
7.206:545
7.206:554
7.206:539
7.207:533
7.207:533
7.209:518
7.209:520
7.210:528
7.210:544
7.210:534
7.210:517
7.211:499
7.211:512
7.211:530
7.211:543
7.213:537
7.213:520
7.214:520
7.230:550
7.230:582
7.230:576
7.230:580
7.234:591
7.234:587
7.234:584
7.234:579
7.235:591
7.235:603
7.235:600
7.235:591
7.235:586
7.236:572
7.238:566
7.238:555
7.238:551
7.239:566
7.239:592
7.239:618
7.239:628
7.239:629
7.240:603
7.242:552
7.242:523
7.242:518
7.242:533
7.243:537
7.243:538
7.243:550
7.257:550
7.258:581
7.258:611
7.262:609
7.262:592
7.262:594
7.263:603
7.263:618
7.263:618
7.263:616
7.263:594
7.264:589
7.264:610
7.266:623
7.266:617
7.266:606
7.267:616
7.267:624
7.267:625
7.267:634
7.267:630
7.268:621
7.268:622
7.270:633
7.270:645
7.270:640
7.270:632
7.271:631
7.271:621
7.271:621
7.291:641
7.291:649
7.291:648
7.291:621
7.291:599
7.292:590
7.292:580
7.292:585
7.292:592
7.292:580
7.295:563
7.295:557
7.295:551
7.295:556
7.296:519
7.296:462
7.296:462
7.296:513
7.296:544
7.299:520
7.299:513
7.299:543
7.299:529
7.300:516
7.300:530
7.300:556
7.300:568
7.300:550
7.301:527
7.303:502
7.319:502
7.319:482
7.320:479
7.320:471
7.320:464
7.320:462
7.320:473
7.321:447
7.321:411
7.323:399
7.324:394
7.324:397
7.324:412
7.324:416
7.324:418
7.325:419
7.325:408
7.325:387
7.325:374
7.327:377
7.328:367
7.328:366
7.328:389
7.328:384
7.328:369
7.329:359
7.329:343
7.329:354
7.332:364
7.332:365
7.348:389
7.348:427
7.349:426
7.349:426
7.349:436
7.349:442
7.353:432
7.353:394
7.353:362
7.353:365
7.353:408
7.353:424
7.354:428
7.354:417
7.354:415
7.357:429
7.357:432
7.357:412
7.357:415
7.357:417
7.357:412
7.358:376
7.358:359
7.358:364
7.358:353
7.361:354
7.361:377
7.361:378
7.361:379
7.361:391
7.377:391
7.377:395
7.377:404
7.377:403
7.378:428
7.381:445
7.381:437
7.381:419
7.381:386
7.382:377
7.382:404
7.382:407
7.382:410
7.382:410
7.384:414
7.385:416
7.385:403
7.385:394
7.385:398
7.386:416
7.386:423
7.386:430
7.386:435
7.386:423
7.389:401
7.390:404
7.390:407
7.390:413
7.390:420
7.391:413
7.405:403
7.406:384
7.410:391
7.410:416
7.410:418
7.410:425
7.411:433
7.411:435
7.411:436
7.411:418
7.411:419
7.414:437
7.414:457
7.414:446
7.414:438
7.414:430
7.415:427
7.415:421
7.415:425
7.415:427
7.415:433
7.418:439
7.418:432
7.419:428
7.419:443
7.419:444
7.419:450
7.419:439
7.420:416
7.420:435
7.434:435
7.439:443
7.439:464
7.439:477
7.440:477
7.440:471
7.440:469
7.440:481
7.440:460
7.441:432
7.443:431
7.443:439
7.443:439
7.443:448
7.443:440
7.443:445
7.444:462
7.444:467
7.444:459
7.444:456
7.447:458
7.447:462
7.447:443
7.447:448
7.448:458
7.448:471
7.448:457
7.448:433
7.448:426
7.451:438
7.467:449
7.467:474
7.467:480
7.467:487
7.467:516
7.468:501
7.468:469
7.472:451
7.472:452
7.472:443
7.472:427
7.472:421
7.472:428
7.472:450
7.473:450
7.473:443
7.473:448
7.475:455
7.475:453
7.475:461
7.475:441
7.475:428
7.476:467
7.476:505
7.476:513
7.476:488
7.479:476
7.479:479
7.479:487
7.479:472
7.495:472
7.495:473
7.496:480
7.496:481
7.496:474
7.496:465
7.499:464
7.500:470
7.500:493
7.500:492
7.500:473
7.501:480
7.501:491
7.501:498
7.501:479
7.501:462
7.504:458
7.504:456
7.504:453
7.504:463
7.504:474
7.505:470
7.505:458
7.505:453
7.505:458
7.508:444
7.508:441
7.508:436
7.508:452
7.509:440
7.524:447
7.524:470
7.525:481
7.529:482
7.529:471
7.529:460
7.530:453
7.530:445
7.530:437
7.530:432
7.530:444
7.531:453
7.531:452
7.533:433
7.533:434
7.533:466
7.533:468
7.533:473
7.534:487
7.534:487
7.534:490
7.534:488
7.537:498
7.537:502
7.537:491
7.537:472
7.537:464
7.538:460
7.538:457
7.538:439
7.552:439
7.552:444
7.557:460
7.557:459
7.557:440
7.557:455
7.558:464
7.558:482
7.558:489
7.558:511
7.558:505
7.559:498
7.561:480
7.561:477
7.561:463
7.561:474
7.561:490
7.562:503
7.562:523
7.562:504
7.562:473
7.565:478
7.565:482
7.565:488
7.566:485
7.566:479
7.566:474
7.566:477
7.566:473
7.567:465
7.585:455
7.585:443
7.586:449
7.586:467
7.586:482
7.586:477
7.587:471
7.587:460
7.589:463
7.590:456
7.590:444
7.590:447
7.590:438
7.591:460
7.591:492
7.591:531
7.591:529
7.591:504
7.594:507
7.594:541
7.594:556
7.594:539
7.595:506
7.595:446
7.595:439
7.595:439
7.595:433
7.596:428
7.597:424
7.597:440
7.614:440
7.614:466
7.614:470
7.614:466
7.615:464
7.615:472
7.615:485
7.615:483
7.618:487
7.618:491
7.618:482
7.619:475
7.619:468
7.619:464
7.619:467
7.619:473
7.620:465
7.622:457
7.622:462
7.623:471
7.623:471
7.623:479
7.623:505
7.623:519
7.624:519
7.624:513
7.624:487
7.626:497
7.626:508
7.626:486
7.643:485
7.643:497
7.643:500
7.643:508
7.647:489
7.647:499
7.647:527
7.647:517
7.647:508
7.647:536
7.648:551
7.648:541
7.648:523
7.648:496
7.651:497
7.651:528
7.651:537
7.651:507
7.651:475
7.652:473
7.652:493
7.652:504
7.652:499
7.655:499
7.655:491
7.655:474
7.655:452
7.655:452
7.655:447
7.656:445
7.671:445
7.671:461
7.671:483
7.676:511
7.676:527
7.676:536
7.676:542
7.676:541
7.676:539
7.677:534
7.677:529
7.677:539
7.677:549
7.680:546
7.680:555
7.680:577
7.680:570
7.680:543
7.681:556
7.681:588
7.681:600
7.681:536
7.681:494
7.684:444
7.684:421
7.684:445
7.684:460
7.684:458
7.684:461
7.685:471
7.704:484
7.704:481
7.704:469
7.704:461
7.705:462
7.705:476
7.705:466
7.705:464
7.705:481
7.705:486
7.708:500
7.708:499
7.708:490
7.709:482
7.709:467
7.709:461
7.709:453
7.709:444
7.709:437
7.712:457
7.712:480
7.712:495
7.713:498
7.713:490
7.713:485
7.713:487
7.713:489
7.713:489
7.713:457
7.716:441
7.733:441
7.733:446
7.733:469
7.733:465
7.733:465
7.733:477
7.734:494
7.734:512
7.734:515
7.737:508
7.737:489
7.737:458
7.737:436
7.737:434
7.738:446
7.738:477
7.738:511
7.738:513
7.741:520
7.741:515
7.741:498
7.741:492
7.741:485
7.742:498
7.742:511
7.742:504
7.742:502
7.742:500
7.746:477
7.746:442
7.762:435
7.762:448
7.762:468
7.762:467
7.763:456
7.763:455
7.766:474
7.766:486
7.766:449
7.766:437
7.766:436
7.767:438
7.767:446
7.767:462
7.767:475
7.770:500
7.770:514
7.770:519
7.770:538
7.770:588
7.771:649
7.771:705
7.771:750
7.771:783
7.771:831
7.774:877
7.774:909
7.774:936
7.774:991
7.774:987
7.790:987
7.790:989
7.790:986
7.791:988
7.791:986
7.794:988
7.794:989
7.794:990
7.794:989
7.795:988
7.795:974
7.795:954
7.795:928
7.795:890
7.799:813
7.799:736
7.799:685
7.799:620
7.799:554
7.799:494
7.800:436
7.800:380
7.800:333
7.800:284
7.803:249
7.803:259
7.803:278
7.803:287
7.803:287
7.803:303
7.819:314
7.819:335
7.823:365
7.823:365
7.824:349
7.824:317
7.824:293
7.824:309
7.824:341
7.825:380
7.825:372
7.828:375
7.828:411
7.828:441
7.828:470
7.828:471
7.829:449
7.829:436
7.829:424
7.829:422
7.829:417
7.831:431
7.831:444
7.831:447
7.832:450
7.832:445
7.832:446
7.832:445
7.832:441
7.832:422
7.847:422
7.852:415
7.852:403
7.852:396
7.852:394
7.853:408
7.853:426
7.853:442
7.853:446
7.853:431
7.856:429
7.856:413
7.856:403
7.856:403
7.856:407
7.857:429
7.857:442
7.857:435
7.857:433
7.857:429
7.860:427
7.860:429
7.860:451
7.860:448
7.861:433
7.861:418
7.861:409
7.861:401
7.861:412
7.864:412
7.880:405
7.880:404
7.880:411
7.881:397
7.881:415
7.881:440
7.881:448
7.884:452
7.884:439
7.885:442
7.885:475
7.885:485
7.885:494
7.885:491
7.886:461
7.886:444
7.886:445
7.888:443
7.888:449
7.889:467
7.889:483
7.889:499
7.889:505
7.889:499
7.889:471
7.890:445
7.892:450
7.892:455
7.893:462
7.893:479
7.909:479
7.909:496
7.909:494
7.909:477
7.909:466
7.910:459
7.913:463
7.913:471
7.913:459
7.913:458
7.914:424
7.914:442
7.914:500
7.914:541
7.914:547
7.915:527
7.917:484
7.917:476
7.917:464
7.917:502
7.918:530
7.918:525
7.918:501
7.918:478
7.918:479
7.921:489
7.921:486
7.922:498
7.922:524
7.922:538
7.937:528
7.937:512
7.938:486
7.942:481
7.942:494
7.942:506
7.942:509
7.942:496
7.943:499
7.943:524
7.943:546
7.943:532
7.943:499
7.946:476
7.946:482
7.946:488
7.946:486
7.946:487
7.946:489
7.947:496
7.947:508
7.947:497
7.950:495
7.950:497
7.950:489
7.950:490
7.951:502
7.951:495
7.951:516
7.951:515
7.966:515
7.966:489
7.970:468
7.971:483
7.971:508
7.971:515
7.971:536
7.971:523
7.972:485
7.972:478
7.972:503
7.972:536
7.974:592
7.974:605
7.975:581
7.975:571
7.975:570
7.975:558
7.975:558
7.976:565
7.976:576
7.978:585
7.979:575
7.979:567
7.979:558
7.979:553
7.979:564
7.980:577
7.980:566
7.980:559
7.999:553
7.999:565
7.999:573
7.999:570
8.000:589
8.000:604
8.000:606
8.000:593
8.003:601
8.003:615
8.003:622
8.003:611
8.004:601
8.004:594
8.004:593
8.004:580
8.004:598
8.005:589
8.008:580
8.008:608
8.008:612
8.008:618
8.009:616
8.009:608
8.009:616
8.009:622
8.009:626
8.011:627
8.012:632
8.012:626
8.028:626
8.028:644
8.029:669
8.029:671
8.029:657
8.029:647
8.029:630
8.030:609
8.032:589
8.032:580
8.033:568
8.033:564
8.033:570
8.033:595
8.033:615
8.033:606
8.033:603
8.035:603
8.036:615
8.036:625
8.036:627
8.036:603
8.036:575
8.037:541
8.037:506
8.037:516
8.037:548
8.039:553
8.039:528
8.040:546
8.056:578
8.056:600
8.056:617
8.056:604
8.060:562
8.060:538
8.060:538
8.060:529
8.060:530
8.060:529
8.061:532
8.061:531
8.061:509
8.061:496
8.064:471
8.064:466
8.064:468
8.064:473
8.064:475
8.065:454
8.065:435
8.065:428
8.065:432
8.069:446
8.069:444
8.069:459
8.069:466
8.070:474
8.070:446
8.070:428
8.084:428
8.084:414
8.084:393
8.089:369
8.089:370
8.089:382
8.089:391
8.089:405
8.089:402
8.089:384
8.089:394
8.089:411
8.089:412
8.093:424
8.093:436
8.093:432
8.093:427
8.093:415
8.093:399
8.093:394
8.093:396
8.093:394
8.093:387
8.097:377
8.097:370
8.097:367
8.097:365
8.097:364
8.097:373
8.097:385
8.119:401
8.119:419
8.119:429
8.119:415
8.119:404
8.119:417
8.119:417
8.119:425
8.119:432
8.119:409
8.123:390
8.123:384
8.123:391
8.123:391
8.123:387
8.123:406
8.123:385
8.123:385
8.123:413
8.126:410
8.126:389
8.126:382
8.126:379
8.126:394
8.126:381
8.126:377
8.126:387
8.126:385
8.126:383
8.130:399
8.146:399
8.146:405
8.146:417
8.146:426
8.147:411
8.147:408
8.147:403
8.147:406
8.147:410
8.151:412
8.151:414
8.151:416
8.151:428
8.151:442
8.151:448
8.151:447
8.151:426
8.151:395
8.155:394
8.155:428
8.155:444
8.155:441
8.155:442
8.155:439
8.155:434
8.155:414
8.155:405
8.155:425
8.159:427
8.159:410
8.175:417
8.175:437
8.175:435
8.175:429
8.175:438
8.175:440
8.179:424
8.179:402
8.179:398
8.180:420
8.180:428
8.180:437
8.180:453
8.180:446
8.180:418
8.183:394
8.183:409
8.183:428
8.183:450
8.183:474
8.183:481
8.183:465
8.183:449
8.183:434
8.184:461
8.188:459
8.188:449
8.188:434
8.188:438
8.188:438
8.204:438
8.204:453
8.204:472
8.204:454
8.204:441
8.208:445
8.208:445
8.208:463
8.208:434
8.208:410
8.208:404
8.208:443
8.209:491
8.209:500
8.213:489
8.213:478
8.213:468
8.213:464
8.213:457
8.213:464
8.213:466
8.213:457
8.213:455
8.213:446
8.216:438
8.216:468
8.216:494
8.216:498
8.216:501
8.216:482
8.232:457
8.232:457
8.236:453
8.236:476
8.236:493
8.236:492
8.236:486
8.236:451
8.236:442
8.237:470
8.237:482
8.241:487
8.241:486
8.241:472
8.241:450
8.241:447
8.241:463
8.241:477
8.241:461
8.241:450
8.241:452
8.244:455
8.244:454
8.245:453
8.245:460
8.245:463
8.245:482
8.245:491
8.245:479
8.245:471
8.260:471
8.266:456
8.266:455
8.266:473
8.266:475
8.266:456
8.266:436
8.266:448
8.266:456
8.266:478
8.270:502
8.270:489
8.270:472
8.270:486
8.270:497
8.270:497
8.270:504
8.270:499
8.270:477
8.270:465
8.274:441
8.274:453
8.274:471
8.274:480
8.274:470
8.274:464
8.274:455
8.274:433
8.274:436
8.277:441
8.293:464
8.293:474
8.294:467
8.294:452
8.294:430
8.294:434
8.294:465
8.298:495
8.298:506
8.298:481
8.298:446
8.298:436
8.298:437
8.298:445
8.298:458
8.298:452
8.299:460
8.302:479
8.302:485
8.302:463
8.302:458
8.302:481
8.302:510
8.302:538
8.302:542
8.302:525
8.307:517
8.307:515
8.307:516
8.307:513
8.323:513
8.323:518
8.323:503
8.323:460
8.323:422
8.323:420
8.327:432
8.327:457
8.327:465
8.327:467
8.327:468
8.327:472
8.327:460
8.328:453
8.328:450
8.328:439
8.331:437
8.331:473
8.331:474
8.331:467
8.332:479
8.332:490
8.332:482
8.332:450
8.332:451
8.335:468
8.335:499
8.335:499
8.336:480
8.336:478
8.351:478
8.351:470
8.351:460
8.356:476
8.356:490
8.356:507
8.356:505
8.356:489
8.356:480
8.356:489
8.357:496
8.357:487
8.360:481
8.360:482
8.360:468
8.360:476
8.360:492
8.360:501
8.360:490
8.360:476
8.360:486
8.360:492
8.364:487
8.364:488
8.364:502
8.364:517
8.364:504
8.364:491
8.364:482
8.364:470
8.380:470
8.380:451
8.385:454
8.385:470
8.385:467
8.385:452
8.385:455
8.385:475
8.385:473
8.385:446
8.385:449
8.385:474
8.388:491
8.388:486
8.388:476
8.388:478
8.388:503
8.388:528
8.388:526
8.388:522
8.388:526
8.393:514
8.393:501
8.393:493
8.393:488
8.393:480
8.393:493
8.393:502
8.393:508
8.393:509
8.412:518
8.412:524
8.412:529
8.412:534
8.413:546
8.413:545
8.413:507
8.413:505
8.417:523
8.417:529
8.417:543
8.417:538
8.417:523
8.417:528
8.417:532
8.417:537
8.417:543
8.417:556
8.421:562
8.421:543
8.421:537
8.421:538
8.421:509
8.421:465
8.421:462
8.421:457
8.421:460
8.425:468
8.425:459
8.426:429
8.442:429
8.442:418
8.442:441
8.442:449
8.442:460
8.442:474
8.442:478
8.446:483
8.446:493
8.446:491
8.446:472
8.446:457
8.446:475
8.446:482
8.446:471
8.446:464
8.446:456
8.450:462
8.450:469
8.450:498
8.450:507
8.450:481
8.450:480
8.450:467
8.450:463
8.450:468
8.451:460
8.453:453
8.454:441
8.454:444
8.470:429
8.470:427
8.470:425
8.470:461
8.475:502
8.475:506
8.475:491
8.475:450
8.475:442
8.475:465
8.475:467
8.475:460
8.475:451
8.475:451
8.479:477
8.479:502
8.479:504
8.479:489
8.479:466
8.479:470
8.479:478
8.479:502
8.479:515
8.483:500
8.483:485
8.483:488
8.483:478
8.483:456
8.483:471
8.483:495
8.498:495
8.498:497
8.498:496
8.503:499
8.503:503
8.504:504
8.504:491
8.504:466
8.504:446
8.504:457
8.504:459
8.504:447
8.504:450
8.507:467
8.507:473
8.507:495
8.507:527
8.507:581
8.507:635
8.507:702
8.507:748
8.507:782
8.510:800
8.510:818
8.511:838
8.511:908
8.511:960
8.511:990
8.511:990
8.511:988
8.532:988
8.532:988
8.532:988
8.532:988
8.532:990
8.532:990
8.532:990
8.532:991
8.532:986
8.532:948
8.536:922
8.536:920
8.536:879
8.536:817
8.536:731
8.536:644
8.536:563
8.536:511
8.536:471
8.540:403
8.540:329
8.540:283
8.540:253
8.540:243
8.540:240
8.540:246
8.540:254
8.540:270
8.541:294
8.544:342
8.560:342
8.560:340
8.560:337
8.560:343
8.560:383
8.560:383
8.560:381
8.560:361
8.561:384
8.564:398
8.564:386
8.564:392
8.564:393
8.564:359
8.564:368
8.564:397
8.565:390
8.565:377
8.569:397
8.569:414
8.569:412
8.569:408
8.569:403
8.569:399
8.569:400
8.569:395
8.569:398
8.570:412
8.573:400
8.573:388
8.588:395
8.588:404
8.588:456
8.589:473
8.589:478
8.589:474
8.592:454
8.593:440
8.593:425
8.593:414
8.593:408
8.593:398
8.593:404
8.593:409
8.593:416
8.597:424
8.597:437
8.597:431
8.597:450
8.597:452
8.597:457
8.597:467
8.597:471
8.598:433
8.598:436
8.600:457
8.600:442
8.600:419
8.601:412
8.601:414
8.617:414
8.617:416
8.617:423
8.617:414
8.617:403
8.622:441
8.622:458
8.622:480
8.622:499
8.622:494
8.622:480
8.622:470
8.622:483
8.623:485
8.626:469
8.626:456
8.626:465
8.626:471
8.626:471
8.626:471
8.626:475
8.626:462
8.627:454
8.627:450
8.630:431
8.630:435
8.630:469
8.630:483
8.630:492
8.630:509
8.646:497
8.646:497
8.650:498
8.650:499
8.650:473
8.650:466
8.650:467
8.651:454
8.651:467
8.651:477
8.651:470
8.654:479
8.654:476
8.654:473
8.654:469
8.654:474
8.654:483
8.655:484
8.655:484
8.655:472
8.655:453
8.658:455
8.658:468
8.658:485
8.658:476
8.658:458
8.658:450
8.659:465
8.659:488
8.659:501
8.674:501
8.678:503
8.678:503
8.679:497
8.679:501
8.679:497
8.679:480
8.679:461
8.679:461
8.679:476
8.683:473
8.683:485
8.683:538
8.683:574
8.683:548
8.683:506
8.683:496
8.683:507
8.683:508
8.683:488
8.687:476
8.687:473
8.687:475
8.687:484
8.687:510
8.687:519
8.687:531
8.687:532
8.687:523
8.691:532
8.707:527
8.707:532
8.707:521
8.707:523
8.707:543
8.707:559
8.707:564
8.712:549
8.712:537
8.712:540
8.712:541
8.712:548
8.712:550
8.712:556
8.712:560
8.712:561
8.716:547
8.716:571
8.716:593
8.716:565
8.716:519
8.716:502
8.716:532
8.716:580
8.716:591
8.716:605
8.720:605
8.720:572
8.720:532
8.720:517
8.736:517
8.736:516
8.736:530
8.736:568
8.736:593
8.736:599
8.740:584
8.740:586
8.740:608
8.740:637
8.740:637
8.740:618
8.740:591
8.740:578
8.740:595
8.741:595
8.744:604
8.744:625
8.744:643
8.744:630
8.744:598
8.744:580
8.744:564
8.744:574
8.744:591
8.749:589
8.749:593
8.749:588
8.749:608
8.749:611
8.765:594
8.765:591
8.765:595
8.769:590
8.769:573
8.769:584
8.770:595
8.770:616
8.770:612
8.770:598
8.770:606
8.770:623
8.773:642
8.773:626
8.773:614
8.773:616
8.773:616
8.773:606
8.773:606
8.773:605
8.773:614
8.773:605
8.777:571
8.778:549
8.778:573
8.778:620
8.778:615
8.778:567
8.778:546
8.778:540
8.793:540
8.793:541
8.798:534
8.798:526
8.798:503
8.799:491
8.799:490
8.799:486
8.799:466
8.799:444
8.799:457
8.799:471
8.802:476
8.802:479
8.802:486
8.802:486
8.802:467
8.802:449
8.802:448
8.802:463
8.803:475
8.806:474
8.806:458
8.806:453
8.806:458
8.806:431
8.806:401
8.806:412
8.806:433
8.806:427
8.826:413
8.826:409
8.826:401
8.826:406
8.826:429
8.826:431
8.826:425
8.826:418
8.830:421
8.830:418
8.830:414
8.830:398
8.830:381
8.830:368
8.830:356
8.830:360
8.831:374
8.831:398
8.834:396
8.834:370
8.834:359
8.834:359
8.834:362
8.834:372
8.835:363
8.835:366
8.835:425
8.839:434
8.839:436
8.839:422
8.855:422
8.855:403
8.855:382
8.855:377
8.855:373
8.855:362
8.855:387
8.859:421
8.859:422
8.860:385
8.860:358
8.860:352
8.860:350
8.860:347
8.860:352
8.860:374
8.860:395
8.864:403
8.864:412
8.864:423
8.864:412
8.864:401
8.864:399
8.864:403
8.864:395
8.864:390
8.864:386
8.867:371
8.867:358
8.867:348
8.883:358
8.883:368
8.883:379
8.883:382
8.888:378
8.888:375
8.888:363
8.888:345
8.888:372
8.889:398
8.889:392
8.889:437
8.889:495
8.889:507
8.892:509
8.892:479
8.892:454
8.892:453
8.892:449
8.892:416
8.892:411
8.892:423
8.892:413
8.896:413
8.896:439
8.896:460
8.896:452
8.896:420
8.896:415
8.896:413
8.912:413
8.912:421
8.912:427
8.917:434
8.917:431
8.917:422
8.917:424
8.917:421
8.917:441
8.917:458
8.917:441
8.917:447
8.917:454
8.920:441
8.920:440
8.920:460
8.920:473
8.920:468
8.920:450
8.921:438
8.921:431
8.921:417
8.925:406
8.925:404
8.925:408
8.925:410
8.925:426
8.925:440
8.925:445
8.925:441
8.945:443
8.945:437
8.945:442
8.945:432
8.945:436
8.945:437
8.945:443
8.945:450
8.945:448
8.945:444
8.949:454
8.949:468
8.949:472
8.949:480
8.949:476
8.949:468
8.949:462
8.949:462
8.949:483
8.953:484
8.953:478
8.953:470
8.953:462
8.953:454
8.953:467
8.953:471
8.953:440
8.953:420
8.954:416
8.957:430
8.973:430
8.973:435
8.973:426
8.973:465
8.974:487
8.974:487
8.974:481
8.974:449
8.974:420
8.978:409
8.978:411
8.978:428
8.978:462
8.978:494
8.979:494
8.979:479
8.979:451
8.979:450
8.982:453
8.982:455
8.982:463
8.982:456
8.982:455
8.982:472
8.982:478
8.983:484
8.983:489
8.983:474
8.986:468
8.986:465
9.002:467
9.002:472
9.002:470
9.002:471
9.002:470
9.002:465
9.006:448
9.006:478
9.006:504
9.006:513
9.007:530
9.007:509
9.007:515
9.007:536
9.007:481
9.011:415
9.011:370
9.011:383
9.011:442
9.011:459
9.011:461
9.011:447
9.012:455
9.012:462
9.012:478
9.014:494
9.014:499
9.014:481
9.014:466
9.015:457
9.031:457
9.031:463
9.031:478
9.031:479
9.031:468
9.035:471
9.035:466
9.035:456
9.035:456
9.035:457
9.035:463
9.036:477
9.036:477
9.036:462
9.039:444
9.039:435
9.039:433
9.039:446
9.039:481
9.039:488
9.040:474
9.040:457
9.040:452
9.040:450
9.043:462
9.043:468
9.043:477
9.043:488
9.043:483
9.044:471
9.059:441
9.063:445
9.064:465
9.064:468
9.064:494
9.064:484
9.064:489
9.064:492
9.064:487
9.065:468
9.065:453
9.068:456
9.068:466
9.068:475
9.068:478
9.068:455
9.068:447
9.068:462
9.068:458
9.069:452
9.069:467
9.072:470
9.072:475
9.072:471
9.072:468
9.072:457
9.072:455
9.072:450
9.072:456
9.073:465
9.088:465
9.092:457
9.092:463
9.092:485
9.092:486
9.093:474
9.093:494
9.093:512
9.093:512
9.093:484
9.096:465
9.096:431
9.097:378
9.097:371
9.097:412
9.097:455
9.097:466
9.097:451
9.097:476
9.097:516
9.100:537
9.100:527
9.100:504
9.101:489
9.101:514
9.101:531
9.101:545
9.101:533
9.101:497
9.104:484
9.121:484
9.121:482
9.121:504
9.121:492
9.121:482
9.121:496
9.121:510
9.125:528
9.125:514
9.125:499
9.125:499
9.125:490
9.125:474
9.126:469
9.126:475
9.126:493
9.129:508
9.130:524
9.130:509
9.130:508
9.130:500
9.130:503
9.130:511
9.130:516
9.131:488
9.131:489
9.133:498
9.134:493
9.134:482
9.134:490
9.150:490
9.150:502
9.150:502
9.150:517
9.150:544
9.150:539
9.154:524
9.154:527
9.154:547
9.155:557
9.155:555
9.155:521
9.155:490
9.155:509
9.155:527
9.155:534
9.158:526
9.158:527
9.158:513
9.158:528
9.159:572
9.159:535
9.159:485
9.159:458
9.159:464
9.162:468
9.162:491
9.162:497
9.162:487
9.162:482
9.178:473
9.178:453
9.178:438
9.183:435
9.183:442
9.183:434
9.183:428
9.183:448
9.183:484
9.183:505
9.183:495
9.183:466
9.187:463
9.187:474
9.187:485
9.187:468
9.187:444
9.187:445
9.187:437
9.187:425
9.187:415
9.187:415
9.191:428
9.191:433
9.191:442
9.191:463
9.191:461
9.191:453
9.191:432
9.191:433
9.206:433
9.207:435
9.211:454
9.211:506
9.211:518
9.211:497
9.211:464
9.212:476
9.212:487
9.212:479
9.212:488
9.215:480
9.215:477
9.215:482
9.215:480
9.215:477
9.216:465
9.216:440
9.216:415
9.216:445
9.216:498
9.220:520
9.220:506
9.220:491
9.220:486
9.220:506
9.220:521
9.221:508
9.221:490
9.221:476
9.240:476
9.240:469
9.240:461
9.241:449
9.241:434
9.241:426
9.241:434
9.241:441
9.245:437
9.245:431
9.245:435
9.245:443
9.245:460
9.245:478
9.245:512
9.245:568
9.245:611
9.245:652
9.249:705
9.249:742
9.249:771
9.249:808
9.249:821
9.249:863
9.249:903
9.250:982
9.250:989
9.252:988
9.252:989
9.252:987
9.268:987
9.268:988
9.268:988
9.268:987
9.269:987
9.269:989
9.269:989
9.273:990
9.273:990
9.273:961
9.273:934
9.273:889
9.273:796
9.273:710
9.274:660
9.274:601
9.274:550
9.277:483
9.277:383
9.277:316
9.277:288
9.277:267
9.277:264
9.277:250
9.278:256
9.278:276
9.281:311
9.281:330
9.281:357
9.281:350
9.297:346
9.297:374
9.297:404
9.297:416
9.301:406
9.301:404
9.301:408
9.301:412
9.301:407
9.301:389
9.302:376
9.302:381
9.302:394
9.302:405
9.305:418
9.305:430
9.305:394
9.305:373
9.305:365
9.305:399
9.305:444
9.305:450
9.306:410
9.309:346
9.309:359
9.309:373
9.309:379
9.309:389
9.309:417
9.309:388
9.325:388
9.325:372
9.325:397
9.330:438
9.330:450
9.330:430
9.330:410
9.330:403
9.330:416
9.330:451
9.330:460
9.331:444
9.331:425
9.334:407
9.334:396
9.334:401
9.334:404
9.334:410
9.334:406
9.334:401
9.334:403
9.334:417
9.339:428
9.339:431
9.339:462
9.339:479
9.339:489
9.339:507
9.339:511
9.339:506
9.359:496
9.359:475
9.359:462
9.359:446
9.359:446
9.359:443
9.359:432
9.359:420
9.359:431
9.359:454
9.362:443
9.362:437
9.362:446
9.362:481
9.362:476
9.362:453
9.363:421
9.363:413
9.363:435
9.367:493
9.367:515
9.367:501
9.367:499
9.367:500
9.367:505
9.367:491
9.367:498
9.367:487
9.367:470
9.371:459
9.387:459
9.387:459
9.387:481
9.387:472
9.387:463
9.387:449
9.387:436
9.388:439
9.388:436
9.392:461
9.392:476
9.392:479
9.392:473
9.392:459
9.392:450
9.392:463
9.392:476
9.393:482
9.396:477
9.396:458
9.396:446
9.396:444
9.396:463
9.396:495
9.396:511
9.396:492
9.397:476
9.397:472
9.400:474
9.400:484
9.416:498
9.416:497
9.416:501
9.416:507
9.417:498
9.417:476
9.420:484
9.420:488
9.420:499
9.421:506
9.421:495
9.421:508
9.421:518
9.421:519
9.421:497
9.424:495
9.424:506
9.424:517
9.424:522
9.425:522
9.425:522
9.425:512
9.425:511
9.425:506
9.425:527
9.428:517
9.428:517
9.428:532
9.428:536
9.428:508
9.444:508
9.444:486
9.444:489
9.444:501
9.445:522
9.448:529
9.448:530
9.449:551
9.449:560
9.449:556
9.449:565
9.449:573
9.449:557
9.449:545
9.453:556
9.453:553
9.453:553
9.453:550
9.453:539
