445
439
434
435
438
445
448
442
439
437
447
458
459
461
460
456
454
455
459
465
463
464
463
465
479
470
466
467
462
467
495
490
489
491
495
494
485
482
476
472
473
476
475
476
482
486
486
483
482
485
488
490
492
494
496
491
489
490
489
522
522
518
519
517
517
520
514
511
512
518
524
532
471
476
474
467
465
473
473
470
468
462
455
449
454
469
469
416
397
387
384
379
378
383
387
394
401
408
410
407
411
492
493
482
475
475
477
479
479
473
476
478
480
487
490
521
519
522
522
522
522
527
523
526
525
522
521
519
554
559
571
567
560
566
569
570
571
574
573
570
568
565
419
425
424
428
430
427
420
418
427
432
440
445
451
444
437
435
438
439
434
432
439
463
467
468
472
467
466
468
465
463
467
481
494
498
490
480
478
479
471
473
471
468
469
467
465
473
475
473
473
473
474
478
484
478
475
483
476
474
476
481
478
482
490
482
479
478
476
482
482
484
485
492
489
489
488
487
484
528
530
517
513
513
508
504
500
494
486
483
477
478
479
468
471
477
489
491
492
493
753
782
809
841
868
886
888
880
870
874
868
846
817
774
464
467
468
468
465
462
457
457
458
461
461
466
475
479
498
497
500
504
508
508
507
510
509
507
503
499
498
500
546
549
554
551
554
557
555
554
554
549
543
542
552
558
558
451
445
451
451
459
455
448
439
443
443
435
437
448
433
435
434
437
438
428
424
437
450
452
450
450
448
440
479
483
486
478
472
473
480
480
491
496
492
492
500
501
480
484
483
478
477
480
481
478
475
475
478
476
476
481
486
486
486
484
483
482
481
483
481
477
481
488
493
499
494
490
488
489
493
497
493
523
519
519
524
524
523
520
521
521
511
516
528
531
529
467
466
469
469
469
468
466
472
479
487
493
489
480
477
622
575
523
470
420
403
389
378
373
377
384
388
400
397
469
466
465
473
484
497
501
492
487
482
486
488
491
492
512
513
523
530
524
521
522
518
522
523
526
524
528
530
546
551
556
560
556
558
576
544
548
547
537
528
520
523
514
509
510
514
508
501
500
419
414
418
427
428
432
443
442
437
429
423
429
435
427
466
471
471
471
474
474
475
467
462
467
471
480
486
483
463
475
476
470
463
461
461
460
462
463
460
458
462
465
484
487
493
495
489
490
495
498
494
482
482
490
487
479
510
513
514
518
521
519
516
522
526
530
530
527
522
517
470
466
467
468
467
465
465
474
472
472
462
462
467
474
400
384
372
361
362
364
375
387
393
395
392
386
387
392
472
474
475
474
472
471
471
471
503
496
497
501
501
493
489
493
486
491
489
493
485
532
536
543
551
551
552
552
557
563
560
557
559
558
556
512
513
510
495
482
484
480
476
481
474
480
479
477
469
433
430
425
419
419
427
430
426
423
418
419
422
426
433
464
464
467
476
480
480
482
482
480
479
474
474
475
476
465
464
461
462
454
454
457
467
472
467
465
466
473
473
476
478
482
484
484
479
470
503
509
509
510
516
516
512
516
513
518
515
513
511
518
454
460
457
455
459
465
463
456
458
462
466
467
469
471
748
766
785
813
826
818
796
787
781
771
758
731
701
663
467
471
473
478
475
473
475
477
487
488
490
481
479
474
500
501
500
501
501
501
503
511
510
507
511
507
506
517
573
584
581
586
584
581
577
574
574
571
569
564
565
564
447
439
434
432
432
439
447
446
439
440
442
434
432
433
433
433
434
440
444
429
422
419
426
432
435
435
437
437
485
489
484
477
480
477
474
478
489
485
476
481
488
487
486
491
486
480
476
468
464
476
470
468
476
480
474
481
478
474
476
485
494
503
498
506
511
512
512
499
496
496
499
495
497
501
504
499
489
462
470
473
466
461
464
463
465
461
460
462
459
458
459
495
494
499
500
502
505
504
498
505
513
524
531
533
540
462
462
467
474
470
458
445
439
442
446
450
450
449
447
474
475
480
486
493
493
487
504
506
503
499
498
491
490
499
506
504
502
507
511
514
575
563
560
561
564
565
565
568
569
562
559
563
559
559
435
426
426
422
422
426
428
424
429
431
427
418
411
407
447
448
451
452
449
443
443
434
432
439
446
452
453
454
482
487
489
487
486
484
484
479
482
483
488
484
479
472
482
483
480
478
474
474
474
472
471
477
481
480
479
482
480
486
492
493
485
481
481
480
476
484
496
497
493
494
489
491
492
492
489
486
484
481
483
494
501
501
493
488
512
499
497
497
495
492
487
480
444
445
448
454
456
453
459
466
466
466
472
473
471
803
822
843
862
869
865
858
854
846
818
791
752
699
661
451
455
451
454
460
460
462
464
467
471
473
463
465
471
518
522
520
517
512
505
499
503
510
510
506
504
515
521
564
573
569
569
573
573
571
556
545
547
547
547
552
557
460
462
471
474
469
463
468
475
466
467
466
450
451
445
448
443
437
439
445
440
442
478
475
472
464
450
453
461
462
466
473
472
472
476
474
470
478
486
490
481
479
486
490
498
498
491
478
486
484
480
477
482
479
479
482
488
483
486
479
484
488
489
478
494
489
489
492
494
498
498
497
508
496
481
473
471
473
524
530
528
525
525
521
517
516
516
526
531
524
518
508
486
487
479
490
487
474
470
471
467
472
477
472
467
469
399
392
385
383
401
410
407
408
415
420
426
429
433
434
468
468
474
485
486
485
485
483
486
483
485
498
505
509
514
507
500
502
494
479
460
467
552
557
566
567
562
557
560
560
561
563
563
557
536
493
478
479
479
475
479
484
473
469
469
473
462
453
451
424
428
438
438
439
435
433
427
419
420
435
440
445
446
493
501
481
471
468
473
484
502
498
493
490
487
488
488
483
470
455
462
484
496
481
470
471
478
484
491
493
484
480
478
477
474
466
465
469
474
483
489
483
475
474
474
540
536
524
522
524
526
518
456
458
465
464
469
474
472
469
468
465
463
463
459
458
623
640
665
697
724
742
763
775
780
770
760
760
744
732
472
478
478
485
490
489
496
494
476
472
470
463
469
476
501
499
495
496
498
508
508
505
506
508
511
518
515
509
568
565
554
542
540
547
549
547
554
550
544
547
547
556
483
477
471
474
482
472
464
460
452
446
444
445
441
428
414
416
418
416
426
430
430
428
428
434
444
455
456
450
464
474
470
464
459
452
448
455
460
463
464
463
475
479
463
464
473
479
483
484
479
476
473
466
470
476
481
484
481
475
486
491
492
495
486
475
473
475
475
474
478
477
479
482
481
490
496
503
510
503
496
495
490
480
476
477
469
453
441
441
450
462
457
462
465
469
468
474
483
495
506
513
515
513
509
505
501
457
453
437
432
427
427
434
435
432
431
434
434
448
457
475
476
483
487
491
492
493
496
500
495
492
492
492
483
527
524
522
526
531
532
537
570
560
558
564
569
565
560
550
551
558
564
563
565
561
445
446
447
446
448
445
436
423
424
425
423
419
421
426
459
452
446
444
443
451
459
452
449
454
460
463
460
460
498
499
501
500
498
497
494
493
488
482
480
482
490
488
460
471
486
487
487
489
483
477
476
471
468
468
471
473
472
465
473
482
482
486
494
490
480
474
479
485
489
482
494
497
498
495
493
492
488
485
484
483
480
482
495
497
481
474
471
471
480
484
487
482
485
479
470
473
474
469
543
551
566
585
610
635
672
703
382
388
392
391
393
395
403
416
422
425
426
437
442
487
486
481
482
485
482
483
481
474
469
474
476
471
475
500
498
495
495
497
504
510
514
511
512
520
524
527
532
580
586
577
572
566
567
567
560
553
555
555
556
572
570
426
435
438
434
436
433
422
422
431
429
430
425
424
422
457
463
466
462
463
452
452
452
449
456
465
470
464
472
484
486
488
482
478
477
480
462
472
470
474
476
469
471
476
482
475
467
452
452
461
477
482
483
480
480
475
475
472
476
481
479
482
482
482
531
525
525
537
538
536
529
527
528
533
536
539
537
539
472
478
481
480
480
484
486
484
483
475
476
479
469
470
499
451
414
396
379
366
360
361
366
381
395
402
397
395
487
484
488
480
476
480
482
480
475
467
464
468
470
473
515
516
514
515
520
525
543
547
548
552
554
548
547
550
555
555
559
560
570
572
562
556
554
544
533
526
522
518
511
506
500
494
490
494
497
428
428
432
432
430
437
439
438
433
433
428
426
423
454
455
451
448
449
448
455
456
457
457
458
461
462
465
464
477
479
469
468
471
471
472
468
467
468
473
467
464
465
484
489
491
485
480
484
486
485
484
477
478
484
484
483
492
497
497
494
493
493
494
500
502
506
498
487
494
475
471
465
466
467
460
455
456
459
466
464
461
462
462
493
497
508
519
531
543
555
579
377
372
370
370
366
371
381
384
384
393
404
412
428
473
474
476
466
466
472
468
465
464
463
465
464
464
471
517
523
525
526
523
528
528
524
527
530
520
518
517
522
524
578
579
576
573
572
567
572
580
580
580
577
578
578
578
434
428
425
421
421
417
420
420
413
410
409
404
404
443
449
452
449
448
448
450
453
454
456
455
455
455
456
470
473
469
463
463
467
471
477
479
480
482
483
480
476
474
471
470
466
462
470
475
494
487
487
490
491
486
485
486
482
473
468
466
466
475
488
487
484
485
494
493
489
491
489
492
497
495
503
512
453
451
459
457
458
460
461
461
461
462
463
462
460
458
459
542
568
590
590
604
633
672
705
730
755
777
795
815
460
453
452
459
460
454
455
454
457
460
464
467
463
462
493
497
497
501
500
494
496
495
492
482
478
480
485
488
532
534
537
535
539
544
549
548
548
548
546
548
541
543
505
503
492
486
482
478
475
471
427
430
423
418
418
418
410
400
405
414
413
412
419
450
444
445
445
451
458
463
468
469
478
480
480
476
469
475
474
469
469
469
470
476
477
482
482
487
486
475
477
466
468
465
477
488
482
480
478
473
471
468
468
463
462
449
448
462
479
488
496
503
504
503
495
490
483
477
476
543
538
529
527
522
522
516
521
527
521
526
532
530
527
482
481
480
486
483
480
471
522
515
514
509
511
524
522
529
546
566
588
612
640
664
442
438
437
446
457
466
465
468
474
471
465
457
459
472
497
492
492
498
502
497
494
490
491
488
484
478
478
483
526
528
532
526
534
556
568
569
570
571
567
555
551
548
538
534
531
526
515
507
501
499
499
507
505
500
501
504
415
419
420
422
426
419
422
427
428
426
429
435
439
436
451
448
459
461
461
466
466
470
468
482
488
483
485
485
489
495
494
490
487
487
481
470
469
464
462
461
469
468
496
501
502
497
495
491
488
482
504
499
499
499
499
503
510
516
521
530
527
526
521
458
461
459
463
459
458
461
458
450
443
452
461
468
466
775
798
812
804
784
761
744
734
728
712
694
660
624
598
465
470
480
487
490
488
486
486
485
482
482
486
482
471
512
505
497
499
504
504
508
513
515
507
505
508
511
515
569
574
577
583
584
582
574
574
576
569
572
574
574
576
464
465
466
460
455
447
437
416
417
414
414
410
409
412
414
413
413
420
422
422
426
468
470
467
464
461
460
462
461
463
464
471
472
467
463
480
481
480
482
483
486
486
477
472
467
472
467
476
479
475
481
479
474
477
476
479
481
484
483
483
479
478
477
518
518
520
520
520
521
518
518
514
514
514
511
509
507
468
466
460
457
460
462
463
466
472
477
480
480
478
469
673
702
723
737
756
777
801
825
839
838
831
819
817
811
465
473
475
476
473
472
477
474
471
465
465
468
466
467
501
500
499
494
498
505
511
513
519
513
507
514
523
529
528
536
538
537
538
541
539
571
570
570
565
561
554
555
562
565
558
552
549
546
549
394
402
414
414
423
421
418
409
414
419
425
422
425
419
461
463
460
456
455
459
462
457
454
451
458
463
468
465
474
481
484
479
478
480
485
484
482
480
479
471
469
467
486
477
492
492
484
482
487
491
495
505
498
487
492
494
510
505
491
485
492
489
489
529
533
540
550
540
524
525
530
533
527
523
512
513
513
463
474
472
478
483
483
480
485
485
483
479
475
471
464
674
636
636
589
531
477
440
419
404
399
391
389
384
387
480
480
489
494
491
502
503
498
492
500
504
505
501
501
507
509
506
514
514
511
514
527
528
534
532
528
529
527
580
571
568
568
567
565
557
552
546
543
558
566
561
562
435
440
443
444
439
421
421
411
419
418
407
406
413
404
466
459
447
444
439
448
452
455
451
450
460
467
466
461
495
494
488
477
473
460
462
459
483
492
492
488
495
486
483
478
472
467
470
478
477
481
485
485
487
490
490
495
497
500
504
502
497
493
487
478
471
465
454
455
456
453
455
454
448
448
449
446
450
460
460
470
473
482
483
477
478
484
490
493
494
493
489
441
445
449
455
460
460
462
466
474
478
475
473
467
461
498
491
488
488
486
491
491
493
493
489
478
475
485
497
545
545
544
543
545
551
548
582
576
570
567
570
579
582
581
584
582
578
585
580
579
447
435
424
425
420
421
418
411
411
414
417
419
429
433
441
439
438
440
437
435
431
437
434
431
426
421
425
431
492
494
486
486
482
480
481
483
496
497
488
485
487
481
479
478
479
478
478
474
461
450
447
452
465
486
488
485
486
491
498
494
489
490
491
489
480
476
479
485
492
497
490
475
465
465
461
461
459
461
461
459
461
459
460
458
475
473
472
470
469
479
487
490
489
485
483
477
486
498
461
457
460
467
468
470
469
468
460
471
474
465
459
456
455
460
469
470
467
464
453
505
493
488
483
489
495
501
490
486
489
501
503
513
521
558
553
549
549
558
566
569
564
561
555
554
550
542
539
430
421
424
423
421
421
426
429
430
429
429
428
424
419
452
452
448
442
440
443
445
443
438
440
446
463
471
462
471
472
478
478
474
479
480
483
479
479
477
470
469
470
474
480
477
474
472
480
486
478
471
469
476
481
472
469
475
480
490
486
482
490
496
501
512
515
514
518
533
534
530
524
520
523
535
531
529
471
479
479
473
473
474
477
475
470
468
470
462
459
467
785
796
811
824
826
813
803
804
806
796
764
734
692
657
471
466
464
470
475
478
476
474
471
471
477
475
471
462
492
496
492
499
504
509
508
507
509
511
516
521
523
520
559
565
563
563
567
566
566
574
577
580
577
573
572
582
474
468
464
467
472
469
464
460
456
453
446
446
449
450
410
414
416
413
415
421
425
426
458
455
463
467
462
457
462
464
457
465
473
465
465
482
481
483
484
485
482
484
480
478
474
477
474
460
455
467
470
470
470
477
477
474
481
488
496
497
503
494
482
545
540
535
526
522
516
503
493
496
496
479
471
476
475
468
474
476
471
472
472
480
477
480
475
479
484
494
492
397
399
405
411
418
417
422
432
445
453
451
454
462
471
498
493
497
501
502
495
487
508
502
494
504
507
505
506
504
516
523
519
516
515
519
553
551
557
562
569
572
576
577
581
583
584
587
582
585
471
470
467
467
459
448
433
430
431
439
434
438
431
418
429
432
432
433
429
422
418
427
431
427
422
417
412
420
471
471
473
472
472
476
488
484
477
481
482
479
482
486
488
491
490
485
483
476
474
477
478
479
481
483
479
483
486
494
501
498
496
499
504
501
507
508
503
501
503
509
457
457
461
463
461
460
466
470
473
476
471
463
464
470
670
696
720
741
764
787
803
822
397
411
419
428
432
440
441
437
434
431
430
431
434
470
469
472
474
483
485
488
492
489
489
487
491
490
489
528
527
525
525
523
532
533
526
523
520
513
508
517
523
561
564
568
561
557
562
565
567
572
567
562
556
551
554
406
400
392
387
391
393
403
405
420
428
431
429
426
428
460
466
469
459
456
458
458
460
457
455
452
453
452
461
466
470
480
498
503
501
498
474
476
475
464
465
465
470
478
485
490
491
487
481
481
488
474
465
472
476
483
488
490
490
493
490
489
488
492
515
523
523
524
524
527
523
521
523
515
504
495
489
489
463
466
461
457
458
457
464
468
469
467
465
462
468
476
416
419
419
418
419
432
437
438
441
445
435
440
450
451
496
488
479
478
488
497
497
496
497
495
489
490
490
490
521
513
508
511
517
515
548
547
548
545
548
552
558
555
554
566
570
569
567
568
568
467
460
458
467
467
468
463
456
453
453
445
434
426
431
419
419
417
419
424
428
428
426
430
433
437
439
436
475
481
489
488
485
475
468
466
464
471
475
471
467
470
476
481
482
478
478
476
463
457
463
482
477
475
474
469
470
482
476
470
462
465
474
478
478
487
491
489
478
473
486
536
529
522
515
506
506
492
490
491
487
493
490
486
474
468
473
482
486
490
485
485
485
489
494
490
486
477
401
415
428
441
444
447
450
458
478
479
473
473
482
484
479
481
471
474
482
482
481
510
507
508
512
513
511
512
515
516
526
524
515
504
497
544
548
550
545
541
546
554
560
573
570
571
569
573
580
582
477
482
482
477
463
453
443
432
432
441
436
430
435
437
423
426
434
437
437
431
432
432
436
441
439
430
426
481
475
470
475
473
467
469
469
475
478
483
477
481
489
477
487
496
496
489
480
473
475
481
482
483
480
483
482
478
477
476
473
468
472
478
494
483
481
488
490
481
472
472
476
467
462
464
472
472
487
483
490
488
489
487
482
480
479
480
482
483
486
498
453
459
461
462
464
462
469
470
467
475
475
477
473
465
456
484
479
486
486
490
491
492
497
493
487
489
491
492
524
524
522
521
520
521
533
535
535
527
516
507
503
511
542
536
543
549
549
546
543
543
549
548
543
539
523
518
407
412
417
414
415
419
415
413
417
427
430
427
423
417
473
478
478
480
475
469
462
465
492
486
480
478
480
484
477
467
467
472
472
469
473
475
470
462
470
479
479
478
471
472
479
483
490
493
495
503
505
501
501
501
496
495
495
497
495
495
488
485
485
449
455
462
464
463
471
475
475
475
472
471
469
464
463
508
512
519
532
543
554
568
588
625
653
673
696
722
754
447
446
445
447
459
460
459
455
449
448
449
453
449
452
487
481
491
494
497
500
499
509
503
496
497
504
506
517
521
521
517
518
526
527
522
564
566
567
560
550
553
552
553
552
556
551
551
553
552
416
416
416
418
421
418
420
413
406
408
419
417
416
416
447
444
442
436
430
433
437
441
455
456
449
446
454
452
468
479
476
475
489
493
494
489
483
480
472
472
472
473
484
482
478
472
469
473
482
487
487
489
492
495
491
489
487
490
487
484
482
477
477
475
473
476
492
502
503
502
492
492
488
486
485
483
467
451
447
445
445
447
452
452
469
455
459
467
469
472
477
489
814
814
809
800
774
749
704
671
657
628
579
527
480
467
470
471
482
478
469
470
479
491
483
470
472
473
473
501
504
509
519
521
519
521
522
520
520
519
517
517
513
549
549
561
565
568
565
568
570
580
581
577
577
567
566
467
466
461
450
446
446
441
442
440
433
421
411
407
408
418
428
426
434
433
441
445
440
438
445
457
463
462
458
490
480
477
488
487
477
470
488
486
492
493
481
470
464
469
474
478
483
487
485
482
467
459
462
476
492
499
507
504
503
499
501
492
481
470
489
490
502
497
478
477
482
482
484
483
488
496
497
493
514
525
532
534
535
529
529
527
513
505
500
498
496
484
483
482
478
477
477
480
485
488
486
483
488
499
501
497
411
412
416
425
430
430
436
435
431
426
436
441
448
467
498
502
506
495
487
494
501
500
498
499
497
500
494
488
514
522
524
522
528
531
524
512
503
499
511
531
545
548
561
551
549
553
555
544
545
549
478
482
487
483
473
457
447
443
433
424
429
430
427
419
423
424
427
431
435
436
439
442
445
443
440
433
434
483
476
469
469
470
474
487
492
486
487
488
488
482
482
487
485
489
485
488
497
497
491
474
464
454
457
453
459
484
492
488
486
485
495
496
494
493
499
506
508
506
487
461
463
466
463
448
442
445
445
454
456
464
466
469
464
515
513
513
511
510
510
518
447
420
397
377
374
372
371
380
392
394
398
397
397
396
482
484
488
492
489
486
491
492
501
500
499
508
506
498
507
512
512
522
529
540
541
538
530
523
517
520
521
522
572
573
572
572
573
571
565
558
557
569
580
581
581
568
414
418
417
414
411
412
410
417
425
428
424
423
426
423
469
464
472
474
472
469
465
462
464
466
465
469
467
466
475
476
480
477
474
477
477
477
474
472
473
470
462
473
481
476
470
462
461
461
462
458
458
469
472
472
465
469
482
487
487
486
487
494
498
505
518
522
521
525
524
525
517
523
524
522
524
519
517
467
469
471
470
464
461
452
453
454
462
471
478
479
474
445
423
410
401
391
391
386
389
388
385
392
398
400
400
469
474
471
480
484
482
477
480
484
488
482
480
488
482
502
506
509
510
513
513
514
508
505
504
507
514
518
516
556
555
556
553
556
562
558
558
550
544
544
540
539
544
413
417
420
421
419
421
424
414
423
422
424
430
424
423
424
420
424
427
430
433
435
473
479
480
478
469
466
467
475
484
481
470
451
438
443
475
474
480
482
483
488
491
493
495
493
485
481
485
485
479
481
490
492
485
482
478
470
467
469
473
471
467
468
515
518
525
526
526
512
504
510
513
522
524
527
527
519
461
464
459
451
454
461
464
469
475
481
480
473
470
477
861
837
809
807
809
799
775
744
704
662
631
612
583
541
473
468
466
464
467
464
461
468
468
478
482
479
475
473
515
506
503
507
500
506
511
511
512
516
525
530
531
529
526
517
527
538
556
555
547
559
563
554
543
547
553
556
554
551
545
541
534
528
527
399
410
415
415
414
419
431
431
434
435
439
441
444
446
484
480
479
480
482
476
466
454
449
462
466
468
476
470
472
475
490
500
494
498
498
491
486
478
474
478
484
487
489
487
488
478
473
483
488
491
489
490
494
494
490
490
524
525
520
517
517
512
512
471
471
467
464
459
460
463
463
467
470
472
456
445
448
496
503
510
524
531
544
555
559
582
615
644
667
688
705
474
471
471
458
448
447
443
447
456
454
463
478
491
495
505
509
510
515
517
516
511
498
496
499
502
504
500
497
537
527
538
552
559
561
563
566
570
575
574
567
566
576
535
520
509
500
491
479
480
485
486
478
471
480
481
475
425
426
433
436
435
441
441
445
444
437
435
430
429
420
464
478
484
485
477
466
467
475
475
478
478
479
480
484
460
464
475
471
471
474
468
463
486
490
493
493
486
479
477
476
465
459
466
473
477
499
499
498
488
486
488
492
499
501
503
493
485
488
499
487
484
490
495
490
480
481
487
489
483
475
471
474
485
554
580
604
631
660
685
705
724
746