0.004:389
0.004:396
0.004:416
0.004:453
0.004:489
0.004:493
0.004:485
0.004:457
0.004:446
0.004:450
0.004:425
0.005:414
0.005:416
0.005:405
0.005:402
0.005:421
0.005:443
0.005:456
0.005:463
0.005:477
0.005:481
0.005:484
0.005:481
0.005:483
0.005:515
0.006:510
0.006:477
0.006:477
0.006:444
0.006:444
0.006:410
0.006:408
0.006:434
0.006:455
0.006:441
0.006:438
0.006:452
0.006:469
0.006:472
0.007:445
0.007:440
0.007:446
0.007:467
0.007:500
0.007:502
0.007:484
0.007:469
0.007:461
0.007:446
0.007:444
0.007:447
0.007:436
0.007:440
0.008:459
0.008:477
0.008:477
0.008:469
0.008:474
0.008:473
0.008:473
0.008:478
0.008:499
0.008:500
0.008:482
0.008:478
0.008:474
0.009:473
0.009:478
0.009:461
0.009:434
0.009:430
0.009:476
0.009:513
0.009:525
0.009:537
0.009:526
0.009:502
0.009:474
0.009:465
0.009:449
0.010:455
0.010:486
0.010:522
0.010:539
0.010:534
0.010:535
0.010:533
0.010:538
0.010:551
0.010:551
0.010:554
0.010:547
0.010:542
0.011:548
0.011:547
0.011:541
0.011:522
0.011:507
0.011:502
0.011:490
0.011:492
0.011:511
0.011:527
0.011:531
0.011:542
0.011:537
0.011:530
0.012:529
0.012:532
0.012:559
0.012:567
0.012:555
0.012:552
0.012:527
0.012:514
0.012:517
0.012:499
0.012:493
0.012:520
0.012:527
0.013:526
0.013:521
0.013:524
0.013:540
0.013:549
0.013:561
0.013:572
0.013:568
0.013:562
0.013:557
0.013:542
0.013:518
0.014:509
0.014:523
0.014:527
0.014:517
0.014:496
0.014:483
0.014:493
0.014:504
0.014:543
0.014:595
0.014:615
0.014:619
0.014:629
0.014:639
0.015:652
0.015:609
0.015:569
0.015:569
0.015:584
0.015:590
0.015:599
0.015:614
0.015:608
0.015:611
0.015:614
0.015:611
0.016:597
0.016:593
0.016:607
0.016:607
0.016:600
0.016:596
0.016:593
0.016:599
0.016:598
0.016:591
0.016:594
0.016:604
0.016:607
0.016:602
0.017:587
0.017:582
0.017:593
0.017:589
0.017:577
0.017:579
0.017:589
0.017:605
0.017:596
0.017:611
0.017:633
0.017:628
0.017:645
0.018:639
0.018:624
0.018:617
0.018:617
0.018:634
0.018:605
0.018:575
0.018:578
0.018:574
0.018:602
0.018:588
0.018:580
0.018:571
0.019:560
0.019:571
0.019:583
0.019:586
0.019:571
0.019:555
0.019:537
0.019:515
0.019:521
0.019:514
0.019:513
0.019:513
0.020:526
0.020:527
0.020:536
0.020:542
0.020:555
0.020:572
0.020:534
0.020:502
0.020:514
0.020:518
0.020:495
0.020:475
0.020:441
0.021:412
0.021:406
0.021:427
0.021:459
0.021:482
0.021:477
0.021:466
0.021:469
0.021:467
0.021:444
0.021:426
0.021:423
0.022:432
0.022:419
0.022:405
0.022:386
0.022:372
0.022:374
0.022:380
0.022:392
0.022:394
0.022:388
0.022:386
0.022:402
0.022:434
0.023:439
0.023:416
0.023:417
0.023:430
0.023:439
0.023:426
0.023:407
0.023:394
0.023:381
0.023:387
0.023:392
0.023:377
0.023:365
0.024:353
0.024:353
0.024:356
0.024:336
0.024:334
0.024:341
0.024:328
0.024:331
0.024:331
0.024:339
0.024:342
0.024:341
0.025:363
0.025:384
0.025:380
0.025:382
0.025:412
0.025:418
0.025:414
0.025:428
0.025:438
0.025:448
0.025:435
0.025:427
0.025:425
0.026:421
0.026:431
0.026:426
0.026:407
0.026:388
0.026:391
0.026:397
0.026:402
0.026:404
0.026:412
0.026:409
0.026:399
0.027:386
0.027:388
0.027:387
0.027:383
0.027:377
0.027:375
0.027:384
0.027:381
0.027:368
0.027:385
0.027:413
0.027:419
0.027:426
0.028:425
0.028:427
0.028:419
0.028:415
0.028:422
0.028:439
0.028:456
0.028:441
0.028:425
0.028:443
0.028:450
0.028:433
0.028:422
0.029:402
0.029:383
0.029:388
0.029:424
0.029:458
0.029:458
0.029:457
0.029:450
0.029:458
0.029:460
0.029:455
0.029:449
0.029:446
0.030:454
0.030:447
0.030:446
0.030:431
0.030:412
0.030:424
0.030:444
0.030:449
0.030:442
0.030:432
0.030:431
0.030:436
0.031:439
0.031:435
0.031:429
0.031:401
0.031:380
0.031:401
0.031:433
0.031:462
0.031:457
0.031:451
0.031:450
0.031:444
0.031:450
0.032:460
0.032:446
0.032:438
0.032:438
0.032:444
0.032:464
0.032:495
0.032:494
0.032:437
0.032:416
0.032:444
0.032:449
0.033:437
0.033:436
0.033:438
0.033:449
0.033:473
0.033:476
0.033:462
0.033:453
0.033:446
0.033:433
0.033:436
0.033:439
0.033:432
0.034:401
0.034:399
0.034:399
0.034:416
0.034:435
0.034:459
0.034:473
0.034:471
0.034:468
0.034:480
0.034:497
0.034:508
0.034:504
0.035:501
0.035:488
0.035:477
0.035:479
0.035:458
0.035:426
0.035:421
0.035:445
0.035:451
0.035:448
0.035:461
0.035:473
0.036:465
0.036:440
0.036:420
0.036:433
0.036:465
0.036:484
0.036:486
0.036:478
0.036:468
0.036:448
0.036:415
0.036:414
0.036:445
0.037:472
0.037:467
0.037:463
0.037:466
0.037:474
0.037:471
0.037:459
0.037:450
0.037:439
0.037:438
0.037:445
0.037:471
0.038:494
0.038:498
0.038:503
0.038:493
0.038:489
0.038:484
0.038:467
0.038:464
0.038:474
0.038:476
0.038:465
0.038:481
0.038:481
0.039:484
0.039:471
0.039:443
0.039:431
0.039:436
0.039:449
0.039:447
0.039:453
0.039:480
0.039:457
0.039:446
0.039:436
0.039:437
0.040:440
0.040:453
0.040:458
0.040:474
0.040:465
0.040:416
0.040:457
0.040:486
0.040:476
0.040:481
0.040:462
0.040:456
0.040:463
0.041:478
0.041:506
0.041:493
0.041:481
0.041:469
0.041:463
0.041:471
0.041:506
0.041:521
0.041:517
0.041:516
0.041:523
0.042:525
0.042:519
0.042:494
0.042:469
0.042:456
0.042:454
0.042:476
0.042:489
0.042:515
0.042:539
0.042:521
0.042:476
0.042:430
0.043:436
0.043:480
0.043:507
0.043:521
0.043:528
0.043:545
0.043:528
0.043:499
0.043:499
0.043:483
0.043:495
0.043:512
0.043:521
0.044:535
0.044:530
0.044:531
0.044:532
0.044:526
0.044:537
0.044:554
0.044:565
0.044:529
0.044:505
0.044:523
0.044:531
0.044:521
0.044:506
0.045:507
0.045:502
0.045:499
0.045:498
0.045:486
0.045:486
0.045:478
0.045:459
0.045:452
0.045:435
0.045:422
0.045:424
0.045:440
0.046:466
0.046:480
0.046:484
0.046:475
0.046:472
0.046:482
0.046:470
0.046:455
0.046:457
0.046:453
0.046:460
0.046:458
0.046:493
0.047:482
0.047:462
0.047:468
0.047:454
0.047:454
0.047:467
0.047:474
0.047:463
0.047:442
0.047:415
0.047:437
0.047:410
0.047:448
0.048:457
0.048:475
0.048:475
0.048:456
0.048:437
0.048:428
0.048:432
0.048:447
0.048:454
0.048:440
0.048:436
0.048:432
0.048:420
0.048:418
0.049:419
0.049:424
0.049:408
0.049:383
0.049:395
0.049:427
0.049:458
0.049:497
0.049:516
0.049:510
0.049:517
0.049:513
0.049:514
0.049:509
0.050:506
0.050:494
0.050:485
0.050:488
0.050:483
0.050:473
0.050:467
0.050:486
0.050:492
0.050:480
0.050:464
0.050:456
0.050:453
0.051:447
0.051:464
0.051:487
0.051:493
0.051:508
0.051:553
0.051:589
0.051:596
0.051:648
0.051:724
0.051:768
0.051:813
0.051:875
0.051:922
0.052:953
0.052:956
0.052:983
0.052:988
0.052:989
0.052:989
0.052:987
0.052:987
0.052:986
0.052:987
0.052:988
0.052:989
0.052:991
0.052:990
0.053:991
0.053:989
0.053:938
0.053:853
0.053:767
0.053:708
0.053:625
0.053:563
0.053:486
0.053:409
0.053:348
0.053:298
0.053:249
0.054:197
0.054:151
0.054:136
0.054:145
0.054:161
0.054:190
0.054:240
0.054:281
0.054:298
0.054:319
0.054:345
0.054:365
0.054:357
0.054:353
0.055:386
0.055:431
0.055:438
0.055:440
0.055:460
0.055:464
0.055:461
0.055:456
0.055:441
0.055:411
0.055:398
0.055:402
0.055:400
0.055:420
0.056:428
0.056:451
0.056:404
0.056:418
0.056:414
0.056:414
0.056:408
0.056:397
0.056:380
0.056:372
0.056:379
0.056:390
0.056:390
0.056:396
0.057:418
0.057:455
0.057:486
0.057:497
0.057:506
0.057:500
0.057:481
0.057:462
0.057:463
0.057:450
0.057:403
0.057:353
0.057:366
0.058:402
0.058:455
0.058:461
0.058:458
0.058:457
0.058:467
0.058:461
0.058:449
0.058:450
0.058:448
0.058:476
0.058:509
0.058:499
0.058:454
0.059:440
0.059:438
0.059:444
0.059:450
0.059:455
0.059:464
0.059:483
0.059:498
0.059:497
0.059:491
0.059:482
0.059:469
0.059:473
0.059:428
0.060:430
0.060:445
0.060:447
0.060:463
0.060:480
0.060:507
0.060:508
0.060:485
0.060:472
0.060:460
0.060:480
0.060:514
0.060:526
0.061:510
0.061:495
0.061:489
0.061:480
0.061:480
0.061:491
0.061:502
0.061:500
0.061:495
0.061:497
0.061:506
0.061:490
0.061:474
0.061:472
0.062:474
0.062:458
0.062:459
0.062:462
0.062:467
0.062:490
0.062:500
0.062:526
0.062:513
0.062:489
0.062:470
0.062:460
0.062:476
0.062:487
0.063:512
0.063:522
0.063:514
0.063:506
0.063:503
0.063:505
0.063:500
0.063:512
0.063:535
0.063:555
0.063:548
0.063:542
0.063:541
0.064:538
0.064:530
0.064:512
0.064:510
0.064:518
0.064:511
0.064:523
0.064:510
0.064:511
0.064:531
0.064:541
0.064:545
0.064:554
0.064:557
0.065:565
0.065:539
0.065:522
0.065:521
0.065:509
0.065:509
0.065:519
0.065:544
0.065:570
0.065:570
0.065:571
0.065:547
0.065:518
0.065:500
0.066:528
0.066:537
0.066:533
0.066:511
0.066:493
0.066:483
0.066:499
0.066:514
0.066:510
0.066:524
0.066:540
0.066:533
0.066:558
0.067:578
0.067:596
0.067:612
0.067:624
0.067:615
0.067:596
0.067:591
0.067:588
0.067:572
0.067:548
0.067:547
0.067:554
0.067:560
0.067:565
0.068:579
0.068:572
0.068:569
0.068:565
0.068:565
0.068:593
0.068:612
0.068:614
0.068:616
0.068:605
0.068:596
0.068:573
0.068:553
0.069:558
0.069:577
0.069:573
0.069:573
0.069:591
0.069:618
0.069:627
0.069:620
0.069:630
0.069:621
0.069:611
0.069:609
0.069:599
0.070:606
0.070:614
0.070:614
0.070:611
0.070:617
0.070:610
0.070:598
0.070:598
0.070:598
0.070:583
0.070:575
0.070:562
0.070:538
0.070:536
0.071:528
0.071:536
0.071:541
0.071:539
0.071:541
0.071:568
0.071:602
0.071:607
0.071:583
0.071:567
0.071:565
0.071:563
0.071:548
0.072:519
0.072:518
0.072:547
0.072:542
0.072:524
0.072:529
0.072:513
0.072:504
0.072:485
0.072:484
0.072:495
0.072:498
0.072:482
0.072:472
0.073:471
0.073:491
0.073:493
0.073:495
0.073:491
0.073:472
0.073:460
0.073:465
0.073:448
0.073:418
0.073:411
0.073:432
0.073:445
0.073:457
0.074:452
0.074:432
0.074:425
0.074:411
0.074:388
0.074:376
0.074:408
0.074:408
0.074:414
0.074:400
0.074:384
0.074:361
0.074:349
0.074:346
0.075:352
0.075:375
0.075:393
0.075:386
0.075:377
0.075:364
0.075:368
0.075:389
0.075:390
0.075:397
0.075:397
0.075:387
0.075:372
0.075:349
0.076:317
0.076:311
0.076:316
0.076:339
0.076:388
0.076:436
0.076:454
0.076:465
0.076:451
0.076:424
0.076:404
0.076:396
0.076:379
0.077:376
0.077:361
0.077:357
0.077:362
0.077:361
0.077:375
0.077:392
0.077:404
0.077:411
0.077:420
0.077:419
0.077:429
0.077:431
0.077:422
0.078:433
0.078:441
0.078:438
0.078:407
0.078:363
0.078:365
0.078:383
0.078:368
0.078:370
0.078:376
0.078:389
0.078:421
0.078:421
0.078:449
0.079:450
0.079:449
0.079:446
0.079:434
0.079:452
0.079:464
0.079:443
0.079:417
0.079:415
0.079:421
0.079:395
0.079:369
0.079:362
0.080:371
0.080:370
0.080:371
0.080:387
0.080:383
0.080:386
0.080:401
0.080:411
0.080:396
0.080:381
0.080:400
0.080:429
0.080:447
0.080:464
0.081:503
0.081:523
0.081:521
0.081:484
0.081:439
0.081:425
0.081:404
0.081:405
0.081:434
0.081:462
0.081:463
0.081:456
0.081:452
0.081:430
0.082:414
0.082:420
0.082:425
0.082:418
0.082:420
0.082:444
0.082:479
0.082:477
0.082:468
0.082:470
0.082:472
0.082:469
0.083:468
0.083:480
0.083:473
0.083:460
0.083:450
0.083:450
0.083:458
0.083:482
0.083:473
0.083:458
0.083:447
0.083:441
0.083:439
0.083:452
0.084:436
0.084:417
0.084:423
0.084:430
0.084:431
0.084:444
0.084:467
0.084:469
0.084:466
0.084:455
0.084:442
0.084:425
0.084:428
0.084:440
0.085:443
0.085:451
0.085:468
0.085:468
0.085:448
0.085:440
0.085:438
0.085:419
0.085:414
0.085:404
0.085:416
0.085:429
0.085:438
0.086:464
0.086:484
0.086:492
0.086:496
0.086:500
0.086:474
0.086:457
0.086:464
0.086:468
0.086:484
0.086:459
0.086:439
0.086:423
0.087:424
0.087:423
0.087:423
0.087:409
0.087:405
0.087:405
0.087:402
0.087:418
0.087:455
0.087:464
0.087:469
0.087:469
0.088:491
0.088:489
0.088:488
0.088:484
0.088:508
0.088:521
0.088:506
0.088:487
0.088:469
0.088:465
0.088:449
0.088:446
0.089:439
0.089:427
0.089:415
0.089:428
0.089:436
0.089:447
0.089:448
0.089:427
0.089:415
0.089:426
0.089:450
0.089:453
0.090:436
0.090:452
0.090:492
0.090:490
0.090:476
0.090:458
0.090:451
0.090:450
0.090:464
0.090:457
0.090:451
0.090:448
0.090:428
0.091:422
0.091:431
0.091:451
0.091:463
0.091:461
0.091:497
0.091:539
0.091:554
0.091:539
0.091:524
0.091:513
0.091:492
0.091:490
0.092:501
0.092:488
0.092:462
0.092:443
0.092:442
0.092:452
0.092:474
0.092:501
0.092:498
0.092:498
0.092:496
0.092:470
0.092:442
0.093:435
0.093:434
0.093:446
0.093:473
0.093:487
0.093:483
0.093:456
0.093:427
0.093:404
0.093:423
0.093:469
0.093:524
0.093:552
0.094:536
0.094:505
0.094:488
0.094:489
0.094:502
0.094:523
0.094:530
0.094:524
0.094:536
0.094:528
0.094:542
0.094:553
0.095:562
0.095:553
0.095:514
0.095:474
0.095:453
0.095:445
0.095:447
0.095:465
0.095:458
0.095:444
0.095:457
0.095:472
0.095:471
0.096:461
0.096:468
0.096:488
0.096:484
0.096:479
0.096:471
0.096:455
0.096:440
0.096:442
0.096:442
0.096:420
0.096:397
0.096:381
0.097:363
0.097:369
0.097:395
0.097:415
0.097:438
0.097:438
0.097:452
0.097:465
0.097:468
0.097:458
0.097:447
0.097:465
0.097:470
0.098:463
0.098:463
0.098:461
0.098:450
0.098:416
0.098:406
0.098:419
0.098:414
0.098:424
0.098:424
0.098:424
0.098:448
0.098:457
0.099:472
0.099:477
0.099:464
0.099:476
0.099:495
0.099:511
0.099:518
0.099:499
0.099:478
0.099:478
0.099:480
0.099:461
0.099:470
0.100:482
0.100:481
0.100:493
0.100:487
0.100:459
0.100:431
0.100:420
0.100:438
0.100:443
0.100:433
0.100:439
0.100:433
0.101:410
0.101:417
0.101:436
0.101:468
0.101:480
0.101:466
0.101:477
0.101:490
0.101:500
0.101:519
0.101:548
0.101:582
0.101:626
0.102:673
0.102:673
0.102:727
0.102:789
0.102:829
0.102:874
0.102:929
0.102:968
0.102:991
0.102:991
0.102:988
0.102:989
0.102:989
0.103:988
0.103:989
0.103:989
0.103:989
0.103:988
0.103:987
0.103:991
0.103:930
0.103:859
0.103:816
0.103:795
0.103:787
0.104:735
0.104:658
0.104:588
0.104:506
0.104:434
0.104:376
0.104:315
0.104:243
0.104:193
0.104:161
0.104:153
0.104:161
0.104:178
0.105:196
0.105:208
0.105:205
0.105:220
0.105:278
0.105:344
0.105:356
0.105:360
0.105:373
0.105:375
0.105:381
0.105:399
0.106:408
0.106:416
0.106:418
0.106:417
0.106:420
0.106:434
0.106:422
0.106:414
0.106:424
0.106:435
0.106:419
0.106:419
0.106:418
0.107:429
0.107:440
0.107:455
0.107:469
0.107:495
0.107:502
0.107:488
0.107:466
0.107:456
0.107:453
0.107:444
0.107:450
0.107:456
0.107:428
0.108:403
0.108:396
0.108:399
0.108:380
0.108:409
0.108:427
0.108:427
0.108:426
0.108:444
0.108:457
0.108:474
0.108:483
0.108:478
0.109:464
0.109:456
0.109:438
0.109:428
0.109:446
0.109:481
0.109:483
0.109:461
0.109:433
0.109:436
0.109:451
0.109:479
0.109:490
0.109:480
0.110:493
0.110:480
0.110:458
0.110:465
0.110:466
0.110:473
0.110:480
0.110:470
0.110:463
0.110:457
0.110:470
0.110:488
0.110:497
0.110:512
0.111:523
0.111:512
0.111:518
0.111:518
0.111:512
0.111:502
0.111:489
0.111:489
0.111:488
0.111:495
0.111:494
0.111:497
0.111:503
0.111:503
0.112:493
0.112:473
0.112:463
0.112:476
0.112:475
0.112:477
0.112:500
0.112:525
0.112:518
0.112:519
0.112:520
0.112:509
0.112:499
0.113:494
0.113:469
0.113:458
0.113:464
0.113:488
0.113:481
0.113:467
0.113:455
0.113:462
0.113:490
0.113:518
0.113:533
0.113:528
0.113:491
0.114:500
0.114:525
0.114:541
0.114:558
0.114:560
0.114:561
0.114:559
0.114:539
0.114:527
0.114:529
0.114:523
0.114:515
0.114:508
0.114:506
0.115:525
0.115:555
0.115:557
0.115:545
0.115:543
0.115:536
0.115:509
0.115:496
0.115:496
0.115:472
0.115:453
0.115:466
0.115:489
0.115:522
0.116:553
0.116:543
0.116:537
0.116:557
0.116:571
0.116:577
0.116:561
0.116:567
0.116:584
0.116:597
0.116:585
0.116:558
0.116:545
0.116:535
0.117:541
0.117:562
0.117:598
0.117:622
0.117:626
0.117:630
0.117:612
0.117:604
0.117:592
0.117:581
0.117:567
0.117:543
0.117:559
0.117:590
0.117:592
0.118:562
0.118:549
0.118:549
0.118:567
0.118:595
0.118:613
0.118:612
0.118:626
0.118:614
0.118:576
0.118:532
0.118:541
0.118:573
0.119:602
0.119:618
0.119:616
0.119:635
0.119:663
0.119:651
0.119:648
0.119:634
0.119:598
0.119:586
0.119:580
0.119:579
0.119:579
0.120:601
0.120:627
0.120:647
0.120:646
0.120:625
0.120:605
0.120:583
0.120:570
0.120:588
0.120:609
0.120:622
0.120:643
0.120:647
0.120:652
0.121:662
0.121:647
0.121:628
0.121:627
0.121:621
0.121:592
0.121:587
0.121:599
0.121:609
0.121:610
0.121:618
0.121:610
0.121:597
0.122:590
0.122:590
0.122:589
0.122:588
0.122:576
0.122:585
0.122:592
0.122:596
0.122:579
0.122:556
0.122:548
0.122:545
0.122:537
0.122:531
0.123:544
0.123:558
0.123:552
0.123:528
0.123:519
0.123:514
0.123:528
0.123:530
0.123:505
0.123:492
0.123:480
0.123:474
0.123:498
0.124:479
0.124:468
0.124:452
0.124:438
0.124:427
0.124:427
0.124:418
0.124:411
0.124:412
0.124:427
0.124:459
0.124:474
0.124:473
0.124:473
0.125:476
0.125:472
0.125:475
0.125:467
0.125:477
0.125:468
0.125:451
0.125:434
0.125:439
0.125:421
0.125:386
0.125:375
0.125:384
0.126:390
0.126:390
0.126:383
0.126:388
0.126:375
0.126:375
0.126:379
0.126:370
0.126:362
0.126:360
0.126:371
0.126:360
0.126:363
0.126:370
0.127:411
0.127:433
0.127:430
0.127:438
0.127:440
0.127:456
0.127:464
0.127:452
0.127:443
0.127:446
0.127:450
0.127:449
0.127:447
0.127:424
0.127:395
0.128:389
0.128:393
0.128:403
0.128:404
0.128:398
0.128:378
0.128:378
0.128:398
0.128:397
0.128:397
0.128:413
0.128:425
0.128:435
0.128:440
0.129:457
0.129:464
0.129:462
0.129:460
0.129:455
0.129:454
0.129:448
0.129:448
0.129:438
0.129:434
0.129:431
0.129:424
0.129:443
0.129:445
0.130:440
0.130:424
0.130:443
0.130:468
0.130:463
0.130:449
0.130:416
0.130:384
0.130:378
0.130:401
0.130:441
0.130:479
0.130:488
0.130:485
0.130:480
0.131:477
0.131:460
0.131:478
0.131:493
0.131:506
0.131:502
0.131:489
0.131:485
0.131:491
0.131:497
0.131:475
0.131:460
0.131:446
0.131:448
0.132:450
0.132:447
0.132:438
0.132:462
0.132:485
0.132:485
0.132:483
0.132:476
0.132:451
0.132:432
0.132:460
0.132:496
0.132:496
0.132:516
0.133:514
0.133:483
0.133:472
0.133:458
0.133:464
0.133:485
0.133:498
0.133:515
0.133:527
0.133:524
0.133:513
0.133:505
0.133:465
0.133:426
0.134:440
0.134:456
0.134:477
0.134:473
0.134:466
0.134:485
0.134:508
0.134:515
0.134:522
0.134:512
0.134:487
0.134:469
0.134:455
0.134:447
0.135:448
0.135:466
0.135:478
0.135:495
0.135:496
0.135:505
0.135:542
0.135:552
0.135:551
0.135:537
0.135:496
0.135:492
0.135:498
0.135:485
0.135:464
0.136:465
0.136:474
0.136:508
0.136:540
0.136:533
0.136:514
0.136:499
0.136:487
0.136:487
0.136:483
0.136:469
0.136:452
0.136:462
0.136:469
0.136:470
0.137:470
0.137:474
0.137:463
0.137:440
0.137:428
0.137:421
0.137:443
0.137:476
0.137:520
0.137:546
0.137:546
0.137:533
0.137:518
0.138:509
0.138:514
0.138:522
0.138:519
0.138:509
0.138:500
0.138:502
0.138:501
0.138:485
0.138:484
0.138:484
0.138:494
0.138:498
0.138:512
0.138:526
0.139:531
0.139:521
0.139:502
0.139:503
0.139:500
0.139:512
0.139:515
0.139:509
0.139:501
0.139:496
0.139:496
0.139:495
0.139:497
0.139:498
0.140:509
0.140:511
0.140:511
0.140:502
0.140:498
0.140:503
0.140:476
0.140:469
0.140:494
0.140:520
0.140:517
0.140:521
0.140:523
0.140:524
0.141:527
0.141:533
0.141:552
0.141:562
0.141:562
0.141:548
0.141:540
0.141:527
0.141:538
0.141:545
0.141:525
0.141:520
0.141:522
0.141:521
0.141:523
0.142:534
0.142:545
0.142:550
0.142:554
0.142:534
0.142:529
0.142:531
0.142:537
0.142:541
0.142:566
0.142:565
0.142:560
0.142:569
0.142:566
0.143:560
0.143:543
0.143:531
0.143:543
0.143:542
0.143:534
0.143:519
0.143:520
0.143:528
0.143:529
0.143:520
0.143:513
0.143:506
0.143:507
0.144:507
0.144:514
0.144:520
0.144:528
0.144:529
0.144:519
0.144:512
0.144:491
0.144:481
0.144:472
0.144:462
0.144:493
0.144:516
0.144:519
0.145:501
0.145:493
0.145:488
0.145:507
0.145:522
0.145:521
0.145:520
0.145:520
0.145:525
0.145:529
0.145:521
0.145:518
0.145:515
0.145:507
0.145:498
0.146:507
0.146:506
0.146:491
0.146:477
0.146:470
0.146:467
0.146:468
0.146:467
0.146:486
0.146:479
0.146:477
0.146:481
0.146:475
0.146:489
0.147:503
0.147:505
0.147:505
0.147:505
0.147:506
0.147:506
0.147:506
0.147:503
0.147:498
0.147:509
0.147:512
0.147:523
0.147:533
0.147:555
0.148:584
0.148:560
0.148:523
0.148:493
0.148:485
0.148:486
0.148:497
0.148:478
0.148:458
0.148:455
0.148:474
0.148:498
0.148:507
0.148:493
0.149:488
0.149:507
0.149:519
0.149:526
0.149:512
0.149:523
0.149:540
0.149:572
0.149:609
0.149:648
0.149:648
0.149:704
0.149:761
0.149:810
0.150:861
0.150:911
0.150:953
0.150:988
0.150:990
0.150:989
0.150:987
0.150:986
0.150:987
0.150:987
0.150:987
0.150:987
0.150:989
0.150:988
0.151:987
0.151:988
0.151:990
0.151:966
0.151:933
0.151:876
0.151:804
0.151:729
0.151:664
0.151:583
0.151:510
0.151:460
0.151:416
0.151:349
0.152:263
0.152:185
0.152:143
0.152:137
0.152:133
0.152:146
0.152:184
0.152:219
0.152:255
0.152:258
0.152:266
0.152:290
0.152:326
0.152:364
0.153:408
0.153:439
0.153:439
0.153:428
0.153:427
0.153:431
0.153:429
0.153:422
0.153:413
0.153:424
0.153:441
0.153:421
0.153:408
0.153:401
0.154:401
0.154:404
0.154:439
0.154:490
0.154:496
0.154:482
0.154:481
0.154:487
0.154:485
0.154:460
0.154:446
0.154:441
0.154:439
0.154:428
0.155:423
0.155:448
0.155:464
0.155:475
0.155:476
0.155:470
0.155:476
0.155:476
0.155:459
0.155:457
0.155:463
0.155:469
0.155:466
0.155:458
0.156:449
0.156:431
0.156:438
0.156:436
0.156:443
0.156:445
0.156:446
0.156:459
0.156:464
0.156:467
0.156:483
0.156:503
0.156:495
0.156:475
0.157:470
0.157:469
0.157:474
0.157:474
0.157:468
0.157:444
0.157:429
0.157:450
0.157:460
0.157:464
0.157:442
0.157:442
0.157:435
0.157:413
0.158:441
0.158:450
0.158:468
0.158:488
0.158:488
0.158:503
0.158:509
0.158:499
0.158:479
0.158:473
0.158:488
0.158:523
0.158:547
0.158:549
0.159:543
0.159:524
0.159:502
0.159:486
0.159:490
0.159:506
0.159:505
0.159:502
0.159:502
0.159:503
0.159:496
0.159:492
0.159:491
0.159:479
0.160:473
0.160:483
0.160:479
0.160:467
0.160:457
0.160:468
0.160:483
0.160:486
0.160:465
0.160:473
0.160:498
0.160:516
0.160:537
0.160:557
0.161:565
0.161:526
0.161:504
0.161:501
0.161:512
0.161:503
0.161:507
0.161:517
0.161:531
0.161:529
0.161:523
0.161:531
0.161:518
0.161:508
0.161:502
0.162:507
0.162:506
0.162:515
0.162:530
0.162:548
0.162:550
0.162:535
0.162:535
0.162:520
0.162:505
0.162:510
0.162:524
0.162:541
0.162:543
0.163:542
0.163:549
0.163:552
0.163:554
0.163:558
0.163:562
0.163:561
0.163:559
0.163:551
0.163:549
0.163:571
0.163:579
0.163:585
0.164:585
0.164:583
0.164:567
0.164:559
0.164:555
0.164:554
0.164:557
0.164:580
0.164:598
0.164:590
0.164:592
0.164:601
0.164:579
0.164:570
0.165:568
0.165:564
0.165:571
0.165:566
0.165:563
0.165:562
0.165:557
0.165:570
0.165:604
0.165:612
0.165:596
0.165:590
0.165:600
0.165:607
0.166:618
0.166:611
0.166:603
0.166:593
0.166:592
0.166:589
0.166:576
0.166:585
0.166:592
0.166:599
0.166:609
0.166:616
0.166:616
0.166:618
0.167:606
0.167:590
0.167:583
0.167:572
0.167:594
0.167:614
0.167:643
0.167:642
0.167:630
0.167:634
0.167:658
0.167:661
0.167:652
0.167:643
0.168:620
0.168:614
0.168:618
0.168:629
0.168:613
0.168:596
0.168:589
0.168:582
0.168:575
0.168:575
0.168:582
0.168:598
0.168:602
0.169:618
0.169:652
0.169:651
0.169:608
0.169:589
0.169:582
0.169:577
0.169:566
0.169:562
0.169:551
0.169:539
0.169:529
0.169:524
0.169:508
0.170:506
0.170:533
0.170:526
0.170:508
0.170:503
0.170:516
0.170:545
0.170:559
0.170:550
0.170:536
0.170:527
0.170:506
0.170:474
0.170:462
0.171:459
0.171:451
0.171:444
0.171:444
0.171:432
0.171:434
0.171:434
0.171:429
0.171:420
0.171:421
0.171:412
0.171:396
0.171:383
0.171:372
0.172:377
0.172:386
0.172:386
0.172:373
0.172:371
0.172:375
0.172:375
0.172:367
0.172:356
0.172:363
0.172:387
0.172:394
0.172:405
0.172:425
0.173:438
0.173:431
0.173:408
0.173:396
0.173:392
0.173:390
0.173:396
0.173:400
0.173:395
0.173:387
0.173:374
0.173:366
0.173:365
0.173:391
0.174:419
0.174:405
0.174:368
0.174:371
0.174:425
0.174:452
0.174:452
0.174:433
0.174:416
0.174:409
0.174:412
0.174:410
0.174:404
0.174:389
0.175:371
0.175:367
0.175:378
0.175:381
0.175:379
0.175:375
0.175:378
0.175:378
0.175:405
0.175:441
0.175:456
0.175:443
0.175:428
0.175:413
0.176:404
0.176:404
0.176:406
0.176:414
0.176:416
0.176:413
0.176:423
0.176:435
0.176:438
0.176:432
0.176:415
0.176:409
0.176:416
0.176:417
0.177:411
0.177:400
0.177:409
0.177:415
0.177:412
0.177:395
0.177:397
0.177:400
0.177:410
0.177:419
0.177:405
0.177:385
0.177:386
0.177:406
0.177:423
0.177:441
0.177:461
0.177:477
0.177:476
0.177:472
0.177:481
0.177:467
0.177:460
0.177:459
0.177:449
0.177:432
0.177:429
0.177:437
0.178:439
0.178:454
0.178:476
0.178:469
0.178:465
0.178:460
0.178:450
0.178:447
0.178:440
0.178:447
0.178:449
0.178:449
0.178:447
0.178:442
0.178:452
0.180:457
0.180:439
0.180:429
0.180:436
0.180:440
0.180:464
0.180:488
0.180:492
0.180:488
0.180:486
0.180:498
0.180:509
0.180:499
0.180:463
0.180:436
0.180:440
0.180:446
0.180:453
0.180:459
0.180:465
0.180:469
0.180:450
0.180:442
0.180:440
0.180:437
0.180:437
0.180:441
0.180:434
0.181:420
0.181:405
0.181:385
0.181:385
0.181:435
0.181:483
0.181:505
0.181:511
0.181:506
0.181:507
0.181:514
0.181:505
0.181:501
0.181:493
0.182:488
0.182:478
0.182:470
0.182:489
0.182:467
0.182:433
0.182:448
0.182:472
0.182:482
0.182:481
0.182:479
0.182:468
0.182:459
0.182:465
0.183:465
0.183:469
0.183:466
0.183:450
0.183:431
0.183:413
0.183:414
0.183:426
0.183:443
0.183:448
0.183:454
0.183:474
0.183:495
0.183:511
0.184:519
0.184:529
0.184:526
0.184:487
0.184:469
0.184:464
0.184:448
0.184:444
0.184:436
0.184:416
0.184:410
0.184:413
0.184:421
0.184:438
0.185:455
0.185:46
0.185:452
0.185:452
0.185:452
0.185:443
0.185:443
0.185:447
0.185:441
0.185:433
0.185:423
0.185:418
0.185:401
0.185:399
0.186:409
0.186:417
0.186:420
0.186:434
0.186:448
0.186:444
0.186:436
0.186:416
0.186:410
0.186:413
0.186:421
0.186:438
0.186:455
0.186:463
0.187:465
0.187:466
52
0.187:443
0.187:443
0.187:447
0.187:441
0.187:433
0.187:423
0.187:418
0.187:401
0.187:399
0.187:409
0.187:417
0.187:420
0.188:434
0.188:448
0.188:444
0.188:436
0.188:416
0.188:410
0.188:413
0.188:421
0.188:438
0.188:455
0.188:463
0.188:465
0.188:466
0.188:471
0.189:453
0.189:455
0.189:466
0.189:461
0.189:460
0.189:456
0.189:437
0.189:430
0.189:433
0.189:442
0.189:448
0.189:452
0.189:449
0.189:447
0.190:460
0.190:458
0.190:456
0.190:450
0.190:426
0.190:417
0.190:415
0.190:427
0.190:430
0.190:447
0.190:460
0.190:462
0.190:455
0.191:441
0.191:433
0.191:437
0.191:438
0.191:432
0.191:429
0.191:429
0.191:417
0.191:428
0.191:447
0.191:462
0.191:449
0.191:447
0.191:443
0.191:426
0.192:410
0.192:399
0.192:416
0.192:439
0.192:449
0.192:458
0.192:467
0.192:464
0.192:449
0.192:456
0.192:479
0.192:509
0.192:498
0.193:445
0.193:429
0.193:435
0.193:438
0.193:445
0.193:446
0.193:449
0.193:469
0.193:462
0.193:459
0.193:448
0.193:430
0.193:411
0.193:407
0.193:419
0.194:448
0.194:471
0.194:483
0.194:474
0.194:461
0.194:455
0.194:444
0.194:444
0.194:447
0.194:444
0.194:447
0.194:465
0.194:472
0.195:479
0.195:479
0.195:492
0.195:468
0.195:445
0.195:448
0.195:456
0.195:451
0.195:446
0.195:439
0.195:439
0.195:444
0.195:457
0.195:483
0.196:479
0.196:464
0.196:461
0.196:452
0.196:444
0.196:430
0.196:425
0.196:421
0.196:417
0.196:414
0.196:426
0.196:449
0.196:476
0.196:502
0.197:506
0.197:511
0.197:505
0.197:487
0.197:470
0.197:461
0.197:462
0.197:472
0.197:480
0.197:487
0.197:491
0.197:483
0.206:473
0.206:471
0.206:472
0.206:472
0.206:467
0.206:486
0.206:478
0.210:468
0.210:469
0.210:453
0.210:456
0.210:464
0.210:468
0.210:474
0.211:482
0.211:475
0.214:477
0.215:478
0.215:485
0.215:472
0.215:480
0.215:474
0.215:460
0.215:458
0.215:476
0.215:497
0.219:502
0.219:480
0.219:485
0.219:488
0.235:488
0.235:491
0.235:501
0.235:520
0.236:524
0.236:509
0.239:477
0.240:456
0.240:467
0.240:471
0.240:484
0.240:528
0.240:566
0.240:577
0.240:556
0.243:523
0.244:501
0.244:489
0.244:502
0.244:502
0.244:483
0.244:471
0.244:467
0.244:474
0.244:470
0.247:469
0.247:491
0.248:491
0.248:473
0.248:451
0.264:443
0.264:453
0.264:455
0.268:434
0.268:436
0.268:451
0.268:454
0.268:446
0.268:443
0.269:437
0.269:454
0.269:463
0.272:456
0.272:462
0.272:457
0.272:445
0.272:443
0.273:435
0.273:439
0.273:446
0.273:459
0.273:468
0.276:478
0.276:477
0.276:475
0.277:471
0.277:460
0.277:448
0.277:447
0.277:453
0.292:453
0.293:448
0.297:442
0.297:438
0.297:428
0.297:427
0.297:431
0.297:439
0.297:448
0.297:460
0.297:469
0.300:475
0.300:459
0.300:438
0.300:436
0.301:431
0.301:417
0.301:430
0.301:448
0.301:482
0.301:486
0.305:467
0.305:448
0.305:438
0.305:436
0.305:434
0.305:444
0.305:457
0.305:459
0.305:457
0.325:463
0.325:453
0.325:442
0.325:439
0.325:428
0.325:426
0.325:420
0.325:420
0.330:435
0.330:469
0.330:508
0.330:545
0.330:597
0.330:656
0.330:710
0.330:777
0.330:810
0.330:820
0.334:850
0.334:893
0.334:935
0.334:989
0.334:991
0.334:989
0.334:988
0.334:988
0.334:986
0.338:990
0.338:987
0.338:989
0.354:989
0.354:989
0.354:990
0.354:989
0.354:966
0.354:925
0.355:880
0.358:838
0.358:774
0.358:704
0.358:634
0.358:553
0.358:467
0.358:419
0.358:379
0.358:325
0.358:255
0.362:157
0.362:105
0.362:115
0.362:143
0.362:194
0.362:242
0.362:272
0.362:284
0.362:310
0.366:338
0.366:355
0.366:370
0.366:376
0.382:377
0.382:377
0.382:382
0.382:401
0.386:382
0.386:368
0.386:368
0.386:379
0.386:385
0.387:392
0.387:394
0.387:395
0.387:385
0.387:370
0.390:364
0.390:375
0.390:375
0.390:382
0.391:400
0.391:424
0.391:438
0.391:442
0.391:438
0.395:446
0.395:441
0.395:429
0.395:419
0.395:406
0.395:395
0.395:378
0.411:378
0.411:383
0.411:405
0.415:435
0.416:446
0.416:435
0.416:433
0.416:436
0.416:421
0.416:407
0.416:407
0.416:417
0.416:418
0.419:436
0.419:429
0.419:419
0.419:425
0.419:414
0.419:399
0.420:418
0.420:435
0.420:434
0.424:439
0.424:427
0.424:419
0.424:423
0.424:418
0.424:426
0.424:435
0.424:460
0.445:470
0.445:453
0.445:440
0.445:433
0.445:431
0.445:454
0.445:462
0.445:449
0.445:445
0.448:431
0.448:415
0.448:414
0.448:427
0.448:452
0.448:474
0.448:476
0.448:469
0.448:468
0.449:472
0.453:474
0.453:467
0.453:462
0.453:459
0.453:465
0.453:468
0.453:466
0.453:464
0.453:455
0.454:444
0.456:441
0.473:441
0.473:449
0.473:471
0.473:474
0.473:482
0.473:488
0.473:489
0.473:492
0.473:490
0.477:488
0.477:491
0.477:486
0.477:481
0.477:470
0.477:463
0.477:459
0.477:466
0.477:483
0.481:490
0.481:467
0.481:432
0.481:443
0.481:476
0.481:514
0.481:519
0.481:516
0.482:505
0.482:497
0.485:501
0.485:506
0.501:499
0.501:510
0.502:522
0.502:526
0.502:520
0.506:503
0.506:508
0.506:519
0.506:526
0.506:522
0.506:510
0.506:497
0.506:492
0.506:497
0.506:491
0.510:489
0.510:481
0.510:492
0.510:518
0.510:539
0.510:541
0.510:534
0.510:526
0.510:519
0.514:515
0.514:510
0.514:504
0.514:498
0.514:505
0.514:523
0.530:523
0.530:527
0.530:526
0.530:529
0.534:529
0.534:521
0.535:529
0.535:549
0.535:567
0.535:570
0.535:571
0.535:571
0.535:541
0.535:515
0.538:500
0.539:502
0.539:527
0.539:563
0.539:578
0.539:585
0.539:587
0.539:583
0.539:585
0.539:581
0.542:585
0.542:578
0.542:564
0.543:548
0.543:537
0.543:551
0.559:559
0.563:565
0.563:579
0.563:588
0.563:589
0.563:572
0.563:577
0.563:600
0.563:604
0.564:597
0.564:583
0.567:589
0.567:591
0.567:586
0.567:579
0.567:574
0.567:570
0.567:571
0.567:569
0.567:560
0.571:559
0.571:552
0.571:546
0.571:564
0.571:582
0.571:581
0.571:581
0.571:584
0.571:601
0.571:627
0.591:627
0.591:635
0.591:603
0.591:568
0.592:578
0.592:572
0.592:567
0.592:578
0.592:581
0.592:599
0.596:629
0.596:608
0.596:579
0.596:569
0.596:567
0.596:576
0.596:566
0.596:552
0.596:542
0.600:525
0.600:506
0.600:486
0.600:478
0.600:482
0.600:498
0.600:506
0.600:502
0.600:515
0.601:529
0.603:536
0.620:531
0.620:519
0.620:509
0.620:505
0.620:508
0.620:501
0.620:488
0.624:478
0.624:463
0.624:438
0.624:423
0.624:414
0.624:386
0.624:374
0.624:404
0.625:442
0.628:454
0.628:445
0.628:436
0.628:430
0.628:421
0.628:413
0.629:385
0.629:373
0.629:361
0.629:365
0.632:389
0.632:411
0.632:412
0.632:410
0.648:410
0.649:410
0.649:400
0.649:400
0.649:384
0.649:377
0.653:359
0.653:354
0.653:374
0.653:385
0.653:377
0.653:368
0.653:373
0.653:378
0.653:366
0.657:357
0.657:352
0.657:353
0.657:363
0.657:352
0.657:331
0.657:331
0.657:370
0.657:407
0.657:417
0.661:410
0.661:401
0.661:387
0.661:376
0.661:380
0.677:394
0.677:402
0.677:396
0.681:393
0.681:394
0.681:391
0.682:386
0.682:380
0.682:387
0.682:394
0.682:399
0.682:406
0.686:409
0.686:388
0.686:393
0.686:401
0.686:402
0.686:401
0.686:407
0.686:406
0.686:399
0.686:398
0.689:399
0.690:414
0.690:411
0.690:401
0.690:393
0.690:385
0.690:385
0.690:403
0.706:403
0.706:419
0.710:428
0.710:425
0.710:416
0.710:411
0.710:414
0.710:405
0.711:381
0.711:379
0.711:392
0.715:417
0.715:442
0.715:439
0.715:427
0.715:415
0.715:408
0.715:408
0.715:402
0.715:402
0.715:394
0.718:402
0.718:428
0.718:439
0.718:441
0.718:444
0.718:435
0.719:427
0.719:433
0.719:450
0.739:460
0.739:467
0.739:455
0.739:427
0.739:414
0.739:405
0.739:408
0.739:417
0.743:420
0.743:415
0.743:434
0.743:459
0.743:460
0.743:463
0.743:460
0.744:455
0.744:439
0.744:421
0.747:404
0.747:428
0.747:442
0.747:427
0.747:421
0.748:419
0.748:434
0.748:426
0.748:426
0.751:462
0.751:477
0.751:456
0.768:456
0.768:444
0.768:446
0.768:453
0.768:476
0.768:481
0.768:477
0.772:471
0.772:457
0.772:445
0.772:443
0.772:438
0.772:444
0.772:450
0.772:440
0.772:450
0.772:461
0.776:455
0.776:437
0.776:432
0.776:443
0.776:441
0.776:430
0.776:441
0.776:468
0.776:469
0.780:433
0.780:416
0.780:433
0.780:448
0.796:475
0.796:485
0.796:466
0.796:448
0.801:445
0.801:442
0.801:449
0.801:462
0.801:482
0.801:464
0.801:429
0.802:432
0.802:427
0.805:414
0.805:414
0.805:427
0.805:438
0.805:426
0.805:432
0.805:438
0.805:430
0.805:434
0.805:442
0.809:449
0.809:450
0.809:451
0.809:459
0.809:465
0.809:465
0.809:465
0.825:465
0.825:468
0.825:477
0.829:479
0.829:477
0.829:469
0.829:465
0.830:463
0.830:471
0.830:471
0.830:457
0.830:471
0.830:463
0.833:440
0.833:437
0.833:449
0.833:454
0.834:434
0.834:419
0.834:425
0.834:431
0.834:430
0.838:445
0.838:475
0.838:481
0.838:471
0.838:458
0.838:451
0.838:460
0.838:481
0.858:489
0.858:474
0.858:465
0.858:456
0.858:474
0.858:488
0.858:485
0.858:466
0.858:445
0.862:431
0.862:427
0.862:430
0.862:444
0.862:427
0.862:424
0.862:437
0.862:448
0.862:458
0.862:480
0.866:494
0.866:487
0.866:489
0.866:493
0.866:491
0.866:479
0.866:460
0.866:451
0.866:446
0.869:443
0.869:453
0.886:453
0.886:453
0.886:471
0.886:501
0.886:509
0.886:496
0.886:491
0.887:499
0.887:498
0.890:474
0.890:482
0.890:481
0.890:464
0.890:464
0.890:459
0.891:455
0.891:465
0.891:479
0.895:480
0.895:489
0.895:496
0.895:477
0.895:476
0.895:475
0.895:474
0.895:457
0.895:464
0.895:500
0.898:522
0.898:508
0.914:494
0.915:483
0.915:468
0.915:473
0.915:485
0.919:492
0.919:489
0.919:470
0.919:478
0.919:516
0.919:531
0.919:531
0.919:519
0.919:519
0.920:511
0.924:510
0.924:512
0.924:519
0.924:518
0.924:521
0.924:528
0.924:523
0.924:495
0.924:480
0.927:477
0.928:491
0.928:492
0.928:490
0.928:486
0.928:485
0.944:485
0.944:494
0.944:495
0.944:479
0.948:479
0.948:458
0.948:438
0.948:434
0.948:425
0.948:437
0.948:455
0.948:447
0.949:456
0.949:472
0.952:474
0.952:474
0.952:455
0.952:456
0.952:452
0.952:439
0.952:435
0.953:442
0.953:455
0.956:462
0.956:463
0.956:468
0.956:465
0.956:447
0.956:448
0.956:456
0.972:454
0.977:447
0.977:443
0.977:427
0.977:398
0.977:383
0.977:398
0.977:428
0.977:454
0.977:461
0.977:465
0.981:447
0.981:464
0.981:488
0.981:467
0.981:460
0.981:468
0.981:474
0.981:477
0.981:467
0.985:443
0.985:434
0.985:458
0.985:477
0.985:479
0.985:474
0.985:464
0.985:468
0.985:474
0.986:460
1.005:460
1.005:455
1.005:445
1.005:428
1.005:431
1.005:429
1.005:433
1.005:461
1.006:456
1.006:455
1.009:452
1.009:440
1.010:432
1.010:437
1.010:446
1.010:450
1.010:461
1.010:498
1.010:559
1.013:622
1.013:688
1.014:744
1.014:769
1.014:800
1.014:835
1.014:889
1.014:947
1.014:991
1.014:990
1.017:988
1.034:988
1.034:988
1.034:987
1.034:988
1.034:987
1.034:986
1.034:988
1.038:990
1.038:990
1.038:962
1.038:912
1.038:861
1.038:816
1.038:756
1.038:689
1.039:634
1.042:573
1.042:508
1.042:464
1.042:408
1.042:333
1.042:263
1.043:185
1.043:152
1.043:152
1.043:165
1.046:183
1.046:206
1.046:220
1.046:224
1.062:224
1.063:249
1.063:301
1.063:341
1.063:357
1.063:365
1.067:386
1.067:387
1.067:394
1.067:397
1.067:400
1.067:400
1.067:394
1.067:395
1.067:389
1.071:388
1.071:403
1.071:400
1.071:379
1.071:377
1.071:385
1.071:379
1.071:376
1.071:391
1.072:409
1.075:410
1.075:397
1.075:416
1.075:442
1.075:459
1.090:448
1.090:441
1.090:427
1.094:401
1.094:397
1.095:413
1.095:414
1.095:421
1.095:431
1.095:423
1.095:409
1.095:410
1.099:418
1.099:422
1.099:418
1.099:429
1.099:436
1.099:432
1.099:431
1.099:450
1.099:446
1.099:443
1.103:441
1.103:442
1.103:422
1.103:418
1.103:423
1.103:432
1.103:446
1.103:456
1.119:456
1.119:454
1.123:450
1.123:444
1.123:444
1.123:429
1.123:430
1.124:447
1.124:450
1.124:442
1.124:434
1.127:441
1.127:450
1.128:448
1.128:447
1.128:463
1.128:464
1.128:451
1.128:454
1.128:461
1.128:469
1.131:479
1.132:478
1.132:470
1.132:467
1.132:456
1.132:456
1.132:469
1.132:458
1.132:441
1.152:429
1.152:427
1.152:431
1.152:444
1.152:455
1.152:489
1.152:509
1.152:485
1.156:482
1.156:487
1.156:496
1.156:498
1.156:483
1.156:471
1.157:460
1.157:459
1.157:472
1.157:501
1.160:502
1.160:492
1.160:493
1.160:494
1.160:487
1.161:480
1.161:473
1.161:471
1.161:470
1.164:476
1.164:491
1.164:503
1.181:503
1.181:519
1.181:520
1.181:500
1.181:488
1.181:483
1.181:483
1.185:498
1.185:503
1.185:510
1.185:496
1.185:466
1.185:445
1.185:432
1.185:442
1.185:467
1.185:500
1.189:499
1.189:500
1.189:522
1.189:543
1.189:547
1.189:546
1.189:549
1.189:557
1.189:558
1.193:552
1.194:546
1.194:554
1.194:552
1.210:545
1.210:545
1.210:542
1.210:538
1.214:536
1.214:523
1.214:501
1.214:496
1.214:489
1.214:498
1.214:521
1.215:534
1.215:542
1.218:559
1.218:566
1.218:555
1.218:533
1.218:541
1.218:559
1.218:565
1.218:573
1.218:579
1.219:587
1.222:593
1.222:584
1.222:568
1.222:554
1.222:541
1.222:525
1.222:538
1.238:538
1.238:568
1.238:585
1.243:587
1.243:587
1.243:568
1.243:573
1.243:581
1.243:584
1.243:581
1.243:586
1.243:588
1.243:586
1.246:580
1.246:572
1.246:567
1.247:569
1.247:565
1.247:571
1.247:572
1.247:585
1.247:600
1.251:614
1.251:601
1.251:592
1.251:589
1.251:574
1.251:557
1.252:549
1.252:546
1.271:558
1.271:574
1.272:577
1.272:586
1.272:576
1.272:581
1.272:599
1.272:604
1.272:621
1.275:629
1.275:616
1.275:590
1.275:574
1.275:580
1.275:586
1.275:580
1.275:576
1.276:567
1.276:567
1.280:577
1.280:579
1.280:589
1.280:592
1.280:582
1.280:564
1.280:552
1.280:549
1.280:546
1.284:548
1.284:535
1.300:535
1.300:511
1.300:507
1.300:519
1.300:522
1.300:518
1.300:519
1.301:518
1.305:496
1.305:470
1.305:464
1.305:480
1.305:479
1.305:452
1.305:434
1.305:432
1.305:444
1.305:449
1.309:465
1.309:468
1.309:455
1.309:433
1.309:407
1.309:399
1.309:398
1.309:410
1.309:413
1.309:416
1.312:408
1.312:384
1.329:375
1.329:387
1.329:404
1.329:407
1.329:405
1.333:417
1.333:416
1.333:397
1.333:371
1.333:356
1.333:357
1.333:357
1.334:354
1.334:359
1.334:381
1.337:394
1.337:398
1.337:398
1.338:392
1.338:382
1.338:387
1.338:384
1.338:389
1.338:386
1.341:366
1.341:381
1.341:392
1.341:375
1.341:334
1.341:315
1.357:315
1.357:316
1.357:332
1.357:344
1.362:356
1.362:367
1.362:362
1.362:369
1.362:381
1.362:385
1.362:376
1.362:374
1.362:370
1.362:379
1.365:423
1.365:442
1.365:419
1.365:392
1.365:395
1.365:409
1.365:406
1.365:403
1.366:404
1.369:410
1.369:408
1.369:395
1.369:393
1.369:398
1.369:402
1.369:412
1.385:411
1.390:425
1.390:434
1.390:429
1.390:441
1.390:449
1.390:438
1.391:430
1.391:416
1.391:420
1.391:420
1.394:425
1.394:424
1.394:417
1.394:411
1.394:394
1.394:387
1.395:387
1.395:382
1.395:398
1.399:432
1.399:448
1.399:458
1.399:464
1.399:459
1.399:437
1.399:434
1.399:437
1.399:432
1.399:428
1.418:428
1.418:416
1.418:412
1.418:409
1.419:409
1.419:415
1.419:412
1.419:411
1.419:412
1.419:410
1.423:408
1.423:417
1.423:444
1.423:450
1.423:453
1.423:461
1.423:451
1.423:443
1.423:429
1.427:424
1.427:424
1.427:412
1.427:420
1.428:447
1.428:448
1.428:447
1.428:448
1.428:419
1.428:396
1.431:383
1.447:393
1.447:429
1.447:465
1.447:485
1.448:501
1.448:496
1.448:481
1.451:471
1.451:451
1.452:445
1.452:459
1.452:443
1.452:437
1.452:452
1.452:451
1.452:442
1.455:449
1.455:463
1.455:467
1.456:465
1.456:456
1.456:441
1.456:432
1.456:437
1.456:442
1.456:437
1.459:446
1.459:455
1.459:451
1.459:429
1.475:429
1.475:415
1.476:425
1.476:435
1.476:451
1.476:471
1.480:480
1.480:476
1.480:469
1.480:469
1.480:452
1.480:422
1.480:408
1.481:404
1.481:409
1.484:431
1.484:458
1.484:482
1.484:482
1.484:479
1.484:468
1.484:460
1.484:443
1.485:441
1.485:458
1.488:477
1.488:476
1.489:460
1.489:439
1.489:417
1.505:417
1.505:427
1.509:443
1.509:455
1.509:448
1.509:457
1.509:452
1.509:456
1.509:453
1.510:444
1.510:447
1.510:459
1.513:449
1.514:450
1.514:467
1.514:460
1.514:445
1.514:459
1.514:481
1.514:498
1.514:485
1.514:458
1.517:448
1.517:447
1.517:440
1.517:435
1.517:434
1.517:440
1.518:433
1.518:441
1.533:441
1.533:457
1.538:469
1.538:466
1.538:445
1.538:443
1.538:452
1.538:452
1.538:449
1.538:452
1.538:479
1.542:505
1.542:516
1.542:515
1.542:491
1.542:473
1.542:453
1.542:431
1.542:425
1.542:443
1.543:461
1.546:455
1.546:432
1.546:417
1.546:426
1.546:454
1.546:471
1.546:479
1.546:465
1.546:439
1.566:437
1.566:446
1.566:418
1.566:406
1.567:428
1.567:465
1.567:485
1.567:496
1.571:504
1.571:506
1.571:503
1.571:506
1.571:502
1.571:493
1.571:475
1.571:461
1.571:471
1.575:477
1.575:468
1.575:454
1.575:455
1.575:470
1.575:478
1.575:482
1.575:479
1.575:478
1.576:480
1.579:483
1.579:469
1.579:471
1.595:471
1.595:473
1.595:474
1.595:471
1.595:487
1.595:481
1.595:464
1.599:462
1.599:471
1.599:490
1.599:490
1.599:498
1.599:506
1.600:495
1.600:502
1.600:511
1.600:525
1.603:535
1.603:534
1.603:534
1.603:532
1.603:532
1.603:523
1.604:516
1.604:500
1.604:498
1.608:524
1.608:539
1.608:526
1.608:523
1.623:522
1.623:512
1.623:505
1.624:501
1.628:492
1.628:495
1.628:510
1.628:512
1.628:515
1.628:508
1.628:487
1.628:480
1.628:465
1.632:454
1.632:453
1.632:463
1.632:472
1.632:464
1.632:453
1.632:439
1.633:450
1.633:444
1.633:455
1.636:467
1.636:455
1.636:446
1.636:439
1.636:455
1.636:444
1.636:426
1.651:426
1.652:403
1.652:392
1.656:406
1.656:429
1.656:441
1.656:436
1.656:458
1.656:478
1.656:483
1.657:475
1.657:475
1.660:465
1.660:436
1.660:409
1.660:428
1.660:454
1.660:475
1.660:491
1.661:492
1.661:482
1.661:466
1.664:463
1.664:469
1.664:460
1.664:453
1.664:450
1.664:460
1.664:465
1.664:469
1.684:484
1.684:483
1.684:480
1.685:479
1.685:491
1.685:492
1.685:494
1.685:475
1.685:456
1.689:464
1.689:466
1.689:447
1.689:450
1.689:456
1.689:461
1.689:464
1.689:451
1.690:443
1.690:443
1.693:441
1.693:435
1.693:440
1.693:457
1.693:456
1.693:436
1.693:434
1.694:442
1.694:449
1.697:457
1.697:474
1.713:474
1.714:494
1.714:525
1.714:551
1.714:588
1.714:638
1.714:704
1.714:770
1.718:812
1.718:822
1.718:851
1.718:911
1.718:986
1.718:989
1.718:989
1.718:988
1.718:988
1.718:987
1.722:987
1.722:988
1.722:989
1.722:989
1.722:989
1.722:990
1.722:982
1.722:926
1.722:876
1.725:818
1.725:751
1.725:686
1.742:640
1.742:592
1.742:536
1.742:482
1.742:428
1.747:352
1.747:266
1.747:180
1.747:143
1.747:143
1.747:144
1.747:157
1.747:177
1.748:190
1.748:226
1.751:266
1.751:297
1.751:325
1.751:362
1.751:395
1.751:411
1.751:407
1.751:411
1.752:421
1.755:433
1.755:433
1.755:420
1.755:417
1.755:405
1.755:408
1.770:408
1.770:419
1.771:424
1.771:418
1.775:409
1.775:406
1.775:403
1.775:403
1.775:413
1.775:427
1.776:437
1.776:430
1.776:425
1.776:429
1.779:421
1.779:406
1.779:390
1.779:409
1.779:420
1.780:415
1.780:414
1.780:416
1.780:412
1.783:407
1.783:406
1.783:419
1.783:436
1.783:440
1.783:434
1.784:441
1.799:448
1.803:438
1.803:419
1.804:411
1.804:400
1.804:420
1.804:447
1.804:464
1.804:463
1.805:433
1.805:404
1.807:407
1.808:418
1.808:424
1.808:421
1.808:430
1.808:435
1.808:427
1.809:428
1.809:419
1.811:421
1.812:436
1.812:458
1.812:474
1.812:487
1.812:484
1.812:475
1.813:463
1.813:442
1.813:440
1.832:440
1.832:453
1.832:459
1.833:471
1.833:488
1.833:490
1.833:482
1.833:481
1.833:477
1.834:463
1.836:449
1.836:458
1.836:467
1.837:481
1.837:491
1.837:482
1.837:487
1.837:480
1.838:465
1.840:454
1.840:445
1.841:456
1.841:452
1.841:435
1.841:436
1.841:454
1.841:461
1.842:455
1.842:462
1.844:472
1.861:489
1.861:510
1.861:518
1.861:527
1.861:520
1.862:515
1.862:502
1.865:475
1.865:464
1.865:472
1.865:480
1.866:499
1.866:519
1.866:515
1.866:503
1.866:497
1.869:491
1.869:501
1.869:498
1.869:493
1.870:492
1.870:496
1.870:489
1.870:479
1.870:489
1.871:499
1.873:511
1.873:512
1.873:504
1.873:498
1.889:498
1.889:497
1.889:509
1.890:511
1.890:499
1.890:515
1.893:535
1.894:533
1.894:524
1.894:505
1.894:490
1.894:495
1.894:513
1.894:523
1.894:541
1.898:537
1.898:545
1.898:533
1.898:502
1.898:490
1.898:498
1.898:512
1.898:513
1.898:515
1.898:521
1.902:527
1.902:532
1.902:527
1.902:546
1.902:573
1.918:582
1.918:584
1.922:569
1.922:556
1.922:569
1.923:569
1.923:551
1.923:545
1.923:546
1.923:557
1.923:568
1.923:583
1.927:581
1.927:573
1.927:561
1.927:564
1.927:566
1.927:563
1.927:559
1.927:559
1.927:564
1.927:569
1.931:569
1.931:560
1.931:564
1.931:568
1.931:567
1.931:566
1.931:573
1.931:598
1.947:598
1.947:612
1.951:624
1.951:620
1.951:599
1.951:570
1.951:549
1.951:552
1.951:549
1.952:568
1.952:592
1.955:608
1.955:595
1.955:591
1.955:592
1.955:591
1.955:588
1.955:590
1.955:588
1.955:597
1.955:607
1.959:611
1.959:614
1.959:617
1.959:600
1.959:589
1.959:591
1.959:582
1.959:573
1.959:562
1.979:553
1.979:569
1.979:594
1.979:600
1.979:589
1.980:584
1.980:575
1.980:543
1.983:530
1.983:525
1.984:539
1.984:547
1.984:556
1.984:561
1.984:538
1.984:506
1.984:467
1.988:450
1.988:467
1.988:508
1.988:529
1.988:533
1.988:523
1.988:503
1.988:478
1.988:490
1.988:495
1.992:478
1.992:454
1.992:458
2.008:458
2.008:475
2.008:467
2.008:463
2.008:458
2.009:433
2.009:429
2.013:416
2.013:410
2.013:415
2.013:416
2.013:420
2.013:420
2.013:412
2.013:385
2.014:370
2.014:364
2.016:379
2.017:390
2.017:389
2.017:379
2.017:381
2.017:388
2.017:387
2.017:389
2.017:392
2.020:401
2.021:414
2.021:416
2.021:405
2.037:380
2.037:341
2.037:336
2.037:342
2.041:354
2.041:370
2.041:382
2.041:394
2.041:394
2.042:394
2.042:388
2.042:387
2.042:389
2.045:381
2.045:366
2.045:352
2.046:333
2.046:326
2.046:348
2.046:394
2.046:428
2.046:436
2.046:433
2.049:419
2.049:399
2.049:381
2.049:389
2.050:405
2.050:404
2.050:385
2.066:385
2.066:376
2.066:381
2.070:363
2.070:346
2.070:327
2.070:330
2.070:354
2.070:383
2.071:388
2.071:382
2.071:386
2.074:411
2.074:413
2.074:409
2.074:403
2.074:402
2.074:413
2.074:433
2.075:441
2.075:435
2.075:446
2.078:448
2.078:421
2.078:399
2.078:386
2.078:388
2.078:407
2.078:425
2.078:434
2.099:442
2.099:441
2.099:423
2.099:427
2.099:433
2.099:428
2.099:420
2.099:411
2.099:404
2.103:403
2.103:393
2.103:396
2.103:416
2.103:435
2.103:433
2.103:433
2.103:434
2.103:435
2.104:441
2.106:441
2.106:437
2.106:434
2.106:432
2.106:434
2.107:443
2.107:437
2.107:432
2.107:427
2.110:424
2.110:426
2.127:426
2.127:443
2.127:449
2.127:454
2.127:456
2.127:454
2.128:443
2.128:444
2.131:441
2.132:426
2.132:412
2.132:409
2.132:426
2.132:439
2.132:452
2.132:460
2.132:452
2.132:443
2.135:443
2.135:447
2.135:455
2.135:459
2.136:462
2.136:449
2.136:442
2.136:441
2.136:440
2.138:431
2.139:425
2.139:426
2.155:443
2.155:464
2.155:482
2.155:480
2.156:467
2.160:457
2.160:444
2.160:420
2.160:418
2.160:423
2.161:421
2.161:422
2.161:429
2.161:431
2.161:440
2.164:431
2.164:417
2.164:422
2.164:438
2.164:460
2.164:468
2.164:488
2.164:493
2.164:482
2.167:479
2.167:472
2.167:454
2.168:450
2.168:449
2.168:449
2.184:449
2.184:457
2.184:460
2.184:459
2.189:464
2.189:458
2.189:455
2.189:449
2.189:447
2.190:442
2.190:433
2.190:436
2.190:430
2.190:434
2.193:418
2.193:415
2.193:432
2.193:444
2.193:456
2.193:468
2.193:466
2.194:465
2.194:469
2.197:468
2.197:460
2.197:465
2.197:472
2.197:469
2.197:459
2.197:456
2.212:453
2.217:455
2.217:464
2.217:482
2.217:490
2.217:475
2.217:468
2.218:466
2.218:467
2.218:465
2.218:468
2.221:464
2.221:442
2.221:433
2.221:447
2.221:464
2.221:463
2.222:464
2.222:464
2.222:455
2.225:455
2.225:452
2.225:461
2.225:469
2.226:463
2.226:455
2.226:460
2.226:463
2.226:447
2.226:423
2.245:423
2.245:418
2.246:423
2.246:440
2.246:460
2.246:459
2.246:462
2.246:455
2.247:440
2.247:449
2.249:467
2.250:475
2.250:468
2.250:459
2.250:457
2.250:453
2.250:471
2.251:483
2.251:472
2.254:461
2.254:463
2.254:461
2.254:474
2.254:477
2.254:471
2.255:478
2.255:476
2.255:462
2.255:442
2.258:430
2.274:425
2.275:434
2.275:465
2.275:473
2.275:468
2.275:483
2.275:474
2.279:452
2.279:457
2.279:475
2.279:485
2.279:495
2.279:503
2.280:499
2.280:495
2.280:504
2.283:508
2.283:496
2.283:489
2.283:479
2.283:475
2.284:471
2.284:474
2.284:477
2.284:472
2.284:473
2.287:480
2.287:482
2.287:473
2.287:470
2.303:470
2.303:455
2.303:437
2.304:461
2.304:494
2.304:506
2.307:505
2.308:491
2.308:469
2.308:458
2.308:474
2.308:515
2.308:529
2.308:526
2.309:526
2.312:525
2.312:526
2.312:519
2.312:511
2.312:502
2.312:498
2.313:518
2.313:518
2.313:504
2.313:506
2.316:533
2.316:546
2.316:530
2.316:509
2.316:498
2.332:506
2.332:508
2.336:491
2.336:488
2.336:479
2.337:470
2.337:480
2.337:487
2.337:473
2.337:457
2.337:438
2.338:436
2.340:448
2.340:464
2.341:477
2.341:464
2.341:453
2.341:460
2.341:477
2.341:497
2.342:493
2.342:489
2.344:494
2.344:476
2.344:460
2.345:432
2.345:433
2.345:442
2.345:439
2.345:436
2.360:436
2.361:446
2.365:451
2.365:461
2.365:462
2.365:463
2.365:463
2.366:454
2.366:452
2.366:441
2.366:454
2.369:472
2.369:482
2.369:483
2.369:468
2.369:469
2.370:470
2.370:459
2.370:436
2.370:432
2.370:436
2.373:437
2.373:452
2.373:462
2.373:468
2.373:458
2.374:446
2.374:442
2.374:444
2.374:452
2.393:465
2.393:465
2.394:468
2.394:470
2.394:470
2.394:477
2.394:470
2.394:455
2.397:440
2.397:447
2.398:451
2.398:456
2.398:464
2.398:450
2.398:428
2.398:433
2.398:451
2.401:469
2.401:481
2.402:478
2.402:467
2.402:455
2.402:450
2.402:452
2.402:465
2.402:486
2.402:506
2.405:534
2.405:567
2.406:613
2.422:613
2.422:673
2.422:729
2.422:789
2.422:799
2.422:811
2.422:852
2.426:909
2.426:963
2.426:990
2.426:989
2.426:989
2.427:989
2.427:987
2.427:986
2.427:987
2.430:987
2.430:989
2.430:990
2.430:990
2.430:982
2.430:938
2.431:872
2.431:815
2.431:779
2.431:739
2.434:685
2.434:634
2.434:549
2.434:451
2.450:421
2.451:367
2.451:289
2.451:220
2.455:176
2.455:154
2.455:159
2.455:190
2.455:234
2.455:261
2.456:288
2.456:294
2.456:298
2.459:324
2.459:359
2.459:379
2.459:366
2.459:376
2.459:385
2.459:384
2.459:368
2.459:344
2.459:352
2.463:385
2.463:427
2.463:443
2.463:447
2.463:430
2.463:425
2.463:432
2.479:432
2.479:453
2.479:451
2.484:420
2.484:392
2.484:381
2.484:389
2.484:400
2.484:415
2.484:435
2.484:433
2.484:424
2.487:419
2.488:411
2.488:392
2.488:389
2.488:407
2.488:407
2.488:409
2.488:405
2.488:397
2.488:408
2.492:415
2.492:425
2.492:449
2.492:463
2.492:447
2.492:421
2.492:397
2.492:392
2.512:403
2.512:423
2.512:448
2.512:458
2.512:454
2.513:450
2.513:451
2.513:447
2.513:439
2.516:439
2.516:448
2.517:446
2.517:440
2.517:425
2.517:423
2.517:452
2.517:480
2.517:484
2.517:468
2.521:464
2.521:467
2.521:464
2.521:454
2.521:440
2.521:427
2.521:427
2.521:453
2.521:470
2.524:460
2.524:449
2.540:449
2.540:452
2.540:466
2.540:470
2.540:473
2.540:474
2.540:480
2.541:487
2.544:476
2.544:473
2.545:480
2.545:484
2.545:483
2.545:465
2.545:448
2.545:441
2.545:439
2.545:440
2.550:427
2.550:421
2.550:435
2.550:457
2.550:501
2.550:521
2.550:510
2.550:496
2.550:491
2.553:488
2.553:485
2.553:483
2.569:483
2.569:489
2.569:497
2.570:491
2.570:486
2.574:493
2.574:503
2.574:496
2.574:493
2.574:486
2.574:484
2.574:486
2.574:486
2.575:484
2.575:490
2.577:486
2.578:484
2.578:481
2.578:458
2.578:473
2.578:489
2.578:484
2.578:503
2.578:523
2.582:519
2.582:501
2.582:511
2.582:516
2.582:511
2.582:508
2.598:508
2.598:514
2.598:528
2.598:531
2.602:526
2.602:530
2.602:534
2.602:527
2.602:517
2.603:517
2.603:519
2.603:515
2.603:534
2.603:543
2.606:536
2.606:536
2.606:537
2.606:531
2.606:544
2.606:553
2.607:548
2.607:546
2.607:545
2.611:530
2.611:515
2.611:518
2.611:534
2.611:541
2.611:542
2.611:544
2.626:548
2.631:561
2.631:563
2.631:563
2.631:560
2.631:555
2.631:544
2.632:531
2.632:534
2.632:549
2.632:573
2.635:591
2.635:606
2.635:599
2.635:571
2.635:548
2.635:548
2.635:555
2.636:561
2.636:562
2.640:559
2.640:571
2.640:590
2.640:589
2.640:571
2.640:552
2.640:564
2.640:572
2.640:583
2.641:583
2.660:583
2.660:580
2.660:573
2.660:568
2.660:574
2.660:587
2.660:598
2.660:602
2.661:593
2.661:582
2.663:579
2.664:586
2.664:585
2.664:590
2.664:587
2.664:603
2.664:598
2.664:575
2.664:554
2.668:567
2.668:591
2.668:596
2.668:596
2.668:594
2.668:587
2.668:582
2.669:574
2.669:581
2.669:595
2.672:615
2.688:606
2.688:592
2.688:572
2.688:565
2.688:563
2.689:561
2.693:540
2.693:522
2.693:535
2.693:550
2.693:557
2.693:553
2.693:541
2.693:529
2.693:519
2.693:510
2.697:504
2.697:496
2.697:486
2.697:485
2.697:495
2.697:483
2.697:456
2.697:454
2.697:457
2.698:473
2.700:470
2.700:466
2.700:464
2.700:460
2.717:460
2.717:447
2.717:431
2.717:422
2.717:410
2.717:384
2.721:370
2.721:353
2.721:343
2.721:323
2.721:344
2.721:385
2.721:409
2.721:401
2.722:400
2.725:388
2.725:391
2.725:410
2.725:415
2.725:409
2.725:383
2.725:363
2.725:375
2.725:373
2.725:377
2.728:392
2.728:400
2.728:403
2.728:406
2.729:397
2.745:389
2.745:375
2.750:354
2.750:343
2.750:344
2.750:352
2.750:347
2.750:354
2.750:360
2.750:389
2.750:406
2.750:400
2.754:398
2.754:403
2.754:405
2.754:388
2.754:388
2.754:391
2.754:408
2.754:402
2.754:385
2.758:382
2.758:376
2.758:382
2.758:402
2.758:402
2.758:406
2.758:411
2.758:409
2.758:406
2.774:406
2.774:412
2.778:416
2.778:397
2.778:384
2.778:393
2.778:389
2.779:384
2.779:396
2.779:408
2.779:413
2.782:403
2.782:396
2.782:390
2.782:391
2.782:401
2.782:408
2.782:404
2.782:404
2.782:397
2.783:390
2.786:389
2.786:389
2.786:391
2.786:403
2.786:414
2.786:402
2.786:407
2.786:428
2.786:427
2.806:420
2.806:416
2.806:407
2.806:397
2.807:374
2.807:358
2.807:392
2.807:433
2.811:435
2.811:441
2.811:451
2.811:449
2.811:420
2.811:419
2.811:443
2.811:447
2.811:447
2.815:456
2.815:456
2.815:446
2.815:427
2.815:432
2.815:457
2.815:475
2.815:462
2.815:448
2.815:453
2.818:437
2.818:434
2.819:432
2.835:432
2.835:409
2.835:390
2.835:408
2.835:443
2.835:465
2.835:463
2.839:448
2.839:425
2.839:425
2.839:425
2.839:429
2.839:432
2.839:426
2.840:442
2.840:458
2.844:472
2.844:472
2.844:465
2.844:456
2.844:459
2.844:458
2.844:446
2.844:445
2.844:449
2.844:451
2.847:467
2.848:468
2.848:450
2.848:441
2.864:422
2.864:391
2.864:364
2.864:389
2.868:447
2.868:501
2.868:510
2.868:492
2.869:470
2.869:447
2.869:437
2.869:436
2.869:446
2.872:455
2.872:475
2.873:480
2.873:476
2.873:462
2.873:457
2.873:455
2.873:456
2.873:449
2.873:449
2.876:452
2.876:446
2.877:438
2.877:431
2.877:428
2.877:437
2.877:435
2.893:435
2.893:439
2.893:439
2.897:443
2.897:461
2.897:463
2.897:462
2.897:470
2.897:470
2.898:453
2.898:440
2.898:434
2.901:443
2.901:460
2.901:472
2.901:471
2.901:449
2.901:444
2.902:449
2.902:449
2.902:431
2.902:418
2.905:444
2.905:461
2.905:467
2.905:446
2.906:432
2.906:444
2.906:460
2.906:465
2.926:464
2.926:446
2.926:459
2.926:456
2.926:459
2.926:458
2.926:455
2.926:444
2.926:438
2.930:430
2.930:435
2.930:453
2.930:464
2.930:480
2.930:486
2.930:477
2.930:469
2.930:461
2.930:453
2.934:447
2.934:454
2.934:464
2.934:469
2.934:484
2.934:499
2.934:501
2.934:477
2.934:464
2.938:465
2.938:459
2.954:459
2.955:457
2.955:459
2.955:433
2.955:416
2.955:411
2.955:433
2.955:444
2.958:445
2.958:454
2.959:480
2.959:483
2.959:468
2.959:466
2.959:474
2.959:471
2.959:471
2.959:480
2.963:471
2.963:476
2.963:487
2.963:487
2.963:483
2.963:484
2.963:481
2.963:468
2.963:474
2.966:467
2.966:467
2.967:469
2.983:466
2.983:457
2.983:452
2.983:450
2.983:444
2.987:463
2.987:467
2.987:471
2.987:467
2.988:469
2.988:478
2.988:484
2.988:477
2.988:453
2.988:434
2.991:429
2.991:438
2.991:448
2.991:471
2.991:488
2.991:508
2.991:507
2.992:516
2.992:520
2.995:513
2.995:491
2.995:481
2.995:473
2.995:464
2.995:467
3.011:467
3.012:469
3.012:453
3.012:434
3.016:430
3.016:421
3.016:432
3.016:458
3.016:481
3.016:485
3.016:486
3.016:485
3.016:465
3.016:446
3.020:457
3.020:480
3.020:483
3.020:498
3.020:508
3.020:502
3.021:496
3.021:510
3.021:513
3.024:503
3.024:500
3.024:506
3.024:536
3.024:568
3.024:568
3.024:543
3.040:537
3.044:536
3.044:537
3.045:520
3.045:497
3.045:505
3.045:497
3.045:512
3.045:522
3.045:512
3.049:496
3.049:494
3.049:502
3.049:507
3.049:500
3.049:476
3.049:462
3.049:442
3.049:441
3.049:440
3.053:436
3.053:431
3.053:450
3.053:480
3.053:491
3.053:478
3.053:467
3.053:454
3.053:458
3.053:464
3.072:464
3.072:463
3.072:456
3.072:443
3.072:445
3.073:450
3.073:448
3.073:462
3.073:466
3.073:443
3.076:445
3.076:450
3.076:447
3.076:460
3.077:464
3.077:460
3.077:452
3.077:451
3.077:470
3.081:475
3.081:474
3.081:458
3.081:444
3.081:456
3.081:480
3.082:489
3.082:481
3.082:474
3.082:473
3.085:471
3.101:469
3.101:472
3.101:481
3.101:473
3.101:461
3.101:456
3.105:457
3.105:443
3.105:438
3.105:455
3.105:460
3.105:456
3.105:454
3.106:456
3.106:465
3.106:467
3.110:471
3.110:472
3.110:469
3.110:480
3.110:492
3.110:499
3.110:483
3.111:470
3.111:455
3.114:449
3.114:443
3.114:448
3.114:449
3.114:445
3.130:445
3.130:442
3.130:442
3.130:442
3.131:443
3.131:458
3.134:506
3.134:564
3.135:596
3.135:636
3.135:697
3.135:735
3.135:778
3.135:825
3.135:878
3.139:936
3.139:990
3.139:988
3.139:989
3.139:989
3.139:988
3.139:987
3.139:987
3.139:988
3.139:987
3.142:989
3.142:989
3.143:990
3.143:966
3.143:934
3.159:884
3.159:822
3.163:756
3.163:700
3.163:649
3.163:590
3.163:524
3.164:458
3.164:421
3.164:374
3.164:300
3.164:232
3.167:202
3.167:185
3.167:196
3.168:216
3.168:235
3.168:255
3.168:270
3.168:307
3.168:331
3.171:321
3.171:322
3.171:322
3.172:333
3.172:340
3.172:350
3.172:373
3.172:392
3.172:391
3.188:391
3.192:394
3.192:401
3.192:414
3.192:430
3.192:435
3.192:428
3.192:420
3.192:428
3.192:426
3.192:425
3.195:422
3.195:413
3.196:407
3.196:406
3.196:414
3.196:434
3.196:429
3.196:410
3.196:404
3.196:411
3.199:416
3.199:432
3.200:435
3.200:430
3.200:428
3.200:424
3.200:419
3.200:422
3.200:426
3.220:427
3.220:425
3.220:413
3.220:406
3.220:410
3.220:408
3.221:408
3.221:415
3.225:412
3.225:420
3.225:435
3.225:438
3.225:447
3.225:467
3.225:467
3.225:464
3.225:456
3.228:429
3.228:405
3.229:396
3.229:413
3.229:432
3.229:452
3.229:457
3.229:448
3.229:454
3.229:452
3.232:450
3.232:465
3.232:488
3.249:488
3.249:487
3.249:476
3.249:457
3.249:442
3.249:447
3.249:457
3.253:458
3.253:460
3.253:449
3.253:437
3.253:433
3.253:433
3.253:467
3.253:487
3.254:489
3.257:503
3.257:510
3.257:502
3.257:495
3.257:500
3.257:470
3.257:460
3.257:471
3.257:479
3.258:468
3.261:464
3.261:470
3.261:466
3.261:467
3.277:463
3.277:465
3.277:474
3.277:485
3.281:500
3.282:500
3.282:488
3.282:479
3.282:483
3.282:496
3.282:503
3.282:502
3.282:501
3.286:499
3.286:489
3.286:477
3.286:469
3.286:454
3.286:451
3.286:461
3.286:478
3.286:495
3.286:496
3.290:493
3.290:504
3.290:521
3.290:536
3.290:523
3.290:511
3.290:515
3.306:515
3.306:514
3.306:514
3.311:521
3.311:517
3.311:513
3.311:501
3.311:505
3.311:533
3.311:551
3.311:562
3.311:538
3.315:523
3.315:519
3.315:514
3.315:502
3.315:491
3.315:500
3.315:516
3.315:539
3.315:545
3.315:541
3.318:544
3.318:542
3.318:546
3.318:548
3.318:550
3.318:560
3.318:553
3.318:528
3.338:526
3.338:533
3.338:543
3.339:557
3.339:555
3.339:557
3.339:546
3.339:552
3.339:549
3.344:553
3.344:548
3.344:553
3.344:565
3.344:572
3.344:579
3.344:576
3.344:574
3.344:574
3.344:573
3.347:554
3.347:557
3.347:578
3.347:599
3.347:602
3.347:578
3.347:556
3.347:564
3.347:574
3.351:589
3.351:589
3.368:589
3.368:584
3.368:578
3.368:590
3.368:596
3.368:587
3.368:586
3.368:594
3.372:600
3.372:601
3.372:608
3.372:623
3.372:622
3.372:620
3.372:594
3.372:574
3.372:580
3.372:588
3.376:595
3.376:598
3.376:601
3.376:601
3.376:599
3.376:580
3.376:563
3.376:570
3.377:576
3.380:590
3.380:605
3.380:602
3.396:599
3.396:603
3.396:609
3.396:595
3.397:590
3.401:580
3.401:558
3.401:560
3.401:563
3.401:571
3.401:579
3.401:577
3.401:577
3.401:563
3.401:556
3.405:556
3.405:558
3.405:557
3.405:542
3.405:531
3.405:539
3.405:532
3.405:523
3.405:517
3.409:504
3.409:498
3.409:502
3.409:498
3.409:489
3.409:487
3.425:487
3.425:491
3.425:496
3.425:494
3.429:492
3.429:474
3.429:468
3.429:459
3.430:446
3.430:441
3.430:445
3.430:447
3.430:439
3.430:419
3.433:408
3.434:400
3.434:406
3.434:415
3.434:405
3.434:401
3.434:396
3.434:395
3.434:377
3.438:350
3.438:336
3.438:352
3.438:373
3.438:375
3.438:360
3.438:366
3.454:382
3.458:417
3.458:431
3.458:414
3.458:404
3.458:413
3.458:401
3.458:398
3.458:404
3.458:394
3.462:376
3.462:378
3.462:371
3.462:380
3.462:387
3.462:397
3.462:395
3.462:382
3.462:362
3.462:342
3.466:346
3.466:353
3.466:366
3.466:377
3.466:392
3.466:401
3.466:404
3.466:414
3.466:414
3.466:398
3.486:398
3.486:380
3.486:367
3.487:374
3.487:390
3.487:392
3.487:405
3.487:422
3.487:433
3.487:423
3.490:410
3.490:394
3.490:374
3.490:363
3.491:370
3.491:368
3.491:393
3.491:422
3.491:433
3.495:438
3.495:403
3.495:372
3.495:373
3.495:389
3.495:402
3.495:424
3.495:442
3.495:437
3.495:419
3.498:411
3.514:407
3.515:387
3.515:375
3.515:390
3.515:420
3.515:451
3.519:443
3.519:412
3.519:424
3.519:430
3.519:425
3.519:419
3.519:415
3.520:420
3.520:427
3.520:421
3.523:415
3.523:424
3.524:424
3.524:417
3.524:414
3.524:428
3.524:442
3.524:453
3.524:463
3.527:451
3.527:448
3.528:455
3.528:447
3.528:434
3.544:434
3.544:428
3.544:427
3.544:443
3.544:465
3.548:470
3.548:462
3.548:432
3.548:415
3.548:410
3.548:412
3.549:430
3.549:447
3.549:453
3.549:456
3.552:447
3.552:421
3.552:396
3.552:401
3.552:425
3.553:442
3.553:466
3.553:466
3.553:456
3.553:454
3.556:439
3.556:451
3.556:457
3.556:456
3.556:440
3.572:427
3.572:434
3.577:455
3.577:473
3.577:471
3.577:461
3.577:462
3.577:452
3.577:435
3.577:443
3.577:439
3.578:425
3.581:412
3.581:405
3.581:405
3.581:420
3.581:441
3.581:466
3.581:484
3.581:488
3.581:474
3.585:445
3.585:426
3.585:436
3.585:456
3.585:478
3.585:480
3.585:477
3.585:470
3.586:466
3.600:466
3.605:445
3.605:425
3.605:424
3.605:435
3.605:445
3.605:474
3.605:488
3.605:474
3.605:450
3.605:429
3.609:437
3.609:459
3.609:457
3.609:460
3.609:461
3.609:460
3.609:463
3.609:476
3.609:486
3.613:485
3.613:475
3.613:463
3.613:462
3.613:462
3.613:464
3.613:448
3.613:429
3.613:417
3.613:434
3.633:444
3.633:466
3.633:484
3.633:482
3.633:459
3.634:453
3.634:449
3.634:434
3.638:451
3.638:469
3.638:471
3.638:488
3.638:489
3.639:473
3.639:453
3.639:450
3.639:456
3.642:450
3.642:447
3.642:439
3.642:437
3.642:448
3.642:467
3.642:481
3.642:488
3.642:486
3.642:475
3.645:467
3.646:455
3.646:443
3.662:443
3.662:447
3.662:447
3.662:454
3.662:445
3.663:435
3.663:434
3.666:440
3.666:460
3.666:493
3.666:503
3.667:488
3.667:469
3.667:464
3.667:465
3.667:472
3.670:474
3.671:468
3.671:457
3.671:443
3.671:444
3.671:447
3.671:448
3.671:451
3.671:441
3.671:442
3.674:451
3.674:470
3.674:480
3.674:488
3.691:478
3.691:473
3.691:481
3.691:492
3.695:492
3.695:481
3.695:457
3.695:458
3.695:473
3.695:478
3.695:474
3.696:467
3.696:465
3.699:457
3.699:450
3.699:457
3.699:460
3.699:456
3.699:472
3.699:479
3.699:476
3.699:489
3.699:510
3.703:516
3.703:505
3.703:502
3.703:497
3.703:496
3.703:482
3.703:472
3.719:472
3.719:446
3.719:447
3.723:486
3.723:487
3.723:473
3.724:481
3.724:474
3.724:492
3.724:506
3.724:498
3.724:473
3.728:478
3.728:499
3.728:493
3.728:469
3.728:470
3.728:484
3.728:500
3.728:503
3.728:485
3.728:471
3.732:467
3.732:470
3.732:484
3.732:503
3.732:519
3.732:520
3.732:504
3.732:506
3.752:527
3.753:538
3.753:518
3.753:488
3.753:487
3.753:486
3.753:477
3.753:478
3.753:482
3.757:509
3.757:536
3.757:544
3.757:552
3.757:559
3.758:558
3.758:536
3.758:512
3.758:497
3.758:483
3.761:484
3.761:502
3.761:506
3.761:476
3.761:436
3.761:418
3.761:432
3.761:446
3.761:473
3.765:483
3.765:479
3.781:479
3.781:469
3.781:472
3.781:465
3.781:460
3.781:460
3.781:459
3.781:462
3.785:462
3.785:442
3.785:427
3.785:425
3.785:430
3.785:444
3.786:461
3.786:490
3.786:507
3.786:496
3.790:477
3.790:464
3.790:460
3.790:459
3.790:448
3.790:441
3.790:431
3.790:444
3.790:444
3.794:443
3.794:443
3.794:465
3.810:497
3.810:492
3.810:477
3.810:463
3.810:472
3.814:498
3.814:493
3.814:460
3.814:446
3.815:455
3.815:480
3.815:482
3.815:476
3.815:461
3.815:458
3.818:460
3.818:465
3.818:463
3.818:459
3.818:452
3.819:471
3.819:496
3.819:481
3.819:466
3.822:462
3.822:476
3.822:476
3.822:465
3.823:447
3.823:439
3.839:439
3.839:427
3.839:418
3.839:427
3.843:439
3.843:443
3.843:442
3.843:447
3.843:470
3.843:499
3.843:535
3.843:561
3.844:598
3.844:670
3.847:756
3.847:827
3.847:867
3.847:888
3.847:919
3.847:967
3.847:990
3.847:989
3.848:989
3.851:987
3.851:987
3.851:988
3.851:987
3.851:989
3.851:988
3.851:989
3.867:990
3.872:989
3.872:991
3.872:945
3.872:884
3.872:807
3.872:740
3.872:700
3.872:669
3.872:601
3.876:521
3.876:442
3.876:369
3.876:292
3.876:233
3.876:199
3.876:184
3.876:200
3.877:199
3.877:212
3.880:228
3.880:249
3.880:276
3.880:296
3.880:318
3.880:329
3.880:329
3.880:346
3.880:354
3.880:361
3.900:361
3.901:380
3.901:387
3.901:395
3.901:392
3.901:393
3.901:402
3.901:413
3.901:399
3.901:383
3.904:381
3.904:391
3.904:406
3.905:427
3.905:426
3.905:417
3.905:410
3.905:405
3.905:414
3.908:417
3.908:428
3.908:435
3.908:430
3.908:411
3.908:396
3.908:393
3.908:400
3.908:407
3.908:420
3.911:424
3.928:428
3.928:428
3.928:439
3.928:435
3.928:423
3.928:423
3.932:423
3.933:425
3.933:434
3.933:422
3.933:405
3.933:391
3.933:405
3.933:449
3.933:462
3.933:470
3.936:464
3.937:431
3.937:434
3.937:443
3.937:450
3.937:446
3.937:443
3.937:456
3.937:461
3.941:456
3.941:434
3.941:426
3.941:417
3.941:422
3.957:422
3.957:432
3.957:439
3.958:450
3.958:450
3.962:440
3.962:438
3.962:443
3.962:453
3.962:460
3.962:456
3.962:463
3.962:472
3.962:470
3.962:473
3.965:461
3.965:463
3.965:480
3.966:477
3.966:470
3.966:463
3.966:463
3.966:482
3.966:483
3.966:473
3.969:462
3.969:446
3.969:425
3.969:411
3.969:426
3.985:460
3.985:477
3.991:465
3.991:461
3.991:471
3.991:489
3.991:506
3.991:508
3.991:504
3.991:492
3.991:485
3.991:467
3.994:464
3.994:466
3.995:481
3.995:503
3.995:508
3.995:510
3.995:513
3.995:513
3.995:522
3.999:511
3.999:503
3.999:505
3.999:496
3.999:480
3.999:476
3.999:486
3.999:497
3.999:498
4.015:498
4.019:515
4.019:531
4.019:539
4.019:525
4.019:507
4.019:509
4.019:509
4.019:503
4.020:504
4.020:508
4.023:531
4.023:531
4.023:527
4.023:509
4.023:515
4.023:528
4.024:532
4.024:520
4.024:504
4.026:491
4.026:502
4.026:512
4.026:510
4.027:530
4.027:554
4.027:580
4.027:580
4.027:556
4.027:548
4.047:559
4.047:561
4.047:571
4.047:570
4.047:570
4.047:562
4.047:535
4.047:525
4.051:519
4.051:518
4.051:520
4.051:536
4.051:560
4.051:556
4.051:549
4.052:537
4.052:516
4.055:519
4.055:539
4.055:573
4.055:576
4.055:583
4.056:574
4.056:561
4.056:575
4.056:574
4.056:586
4.060:596
4.060:601
4.060:610
4.076:610
4.076:614
4.076:600
4.076:587
4.076:580
4.076:590
4.076:603
4.080:603
4.080:592
4.080:587
4.081:590
4.081:592
4.081:592
4.081:600
4.081:602
4.081:597
4.084:594
4.084:579
4.084:556
4.084:549
4.084:549
4.084:543
4.084:560
4.085:587
4.085:600
4.085:609
4.088:628
4.088:629
4.088:614
4.088:590
4.104:567
4.104:577
4.104:587
4.104:605
4.108:609
4.108:591
4.108:583
4.109:572
4.109:566
4.109:572
4.109:583
4.109:599
4.109:589
4.114:565
4.114:569
4.114:568
4.114:558
4.114:554
4.114:565
4.114:573
4.114:576
4.114:568
4.114:551
4.117:511
4.117:502
4.117:497
4.117:491
4.117:483
4.117:472
4.117:493
4.133:493
4.133:523
4.133:527
4.138:519
4.138:497
4.138:482
4.138:466
4.138:458
4.138:454
4.138:460
4.138:465
4.138:471
4.142:454
4.142:449
4.142:436
4.142:407
4.142:371
4.142:365
4.142:374
4.142:405
4.142:428
4.143:433
4.146:423
4.146:419
4.146:429
4.146:423
4.146:409
4.146:415
4.146:422
4.146:391
4.166:363
4.166:356
4.166:356
4.166:352
4.167:373
4.167:383
4.167:372
4.167:348
4.167:341
4.171:362
4.171:387
4.171:397
4.171:406
4.171:399
4.171:393
4.171:383
4.171:363
4.171:351
4.171:347
4.174:349
4.175:365
4.175:364
4.175:359
4.175:361
4.175:382
4.175:387
4.175:394
4.175:399
4.179:404
4.179:411
4.195:411
4.195:399
4.195:386
4.195:384
4.195:390
4.195:397
4.195:410
4.195:415
4.199:411
4.199:389
4.199:385
4.200:408
4.200:426
4.200:422
4.200:404
4.200:391
4.200:383
4.200:370
4.203:371
4.203:387
4.203:395
4.203:398
4.203:391
4.203:376
4.204:369
4.204:383
4.204:389
4.208:385
4.208:394
4.208:399
4.223:421
4.223:430
4.224:425
4.224:411
4.224:412
4.228:431
4.228:451
4.228:452
4.228:455
4.228:461
4.228:448
4.228:437
4.228:421
4.228:421
4.228:434
4.231:448
4.232:455
4.232:454
4.232:436
4.232:418
4.232:423
4.232:427
4.232:424
4.232:422
4.236:411
4.236:398
4.236:386
4.236:395
4.236:407
4.236:421
4.252:421
4.252:426
4.252:431
4.252:443
4.256:446
4.256:429
4.256:424
4.256:405
4.256:412
4.256:399
4.256:401
4.256:409
4.257:440
4.257:467
4.260:464
4.260:440
4.260:434
4.260:436
4.260:417
4.260:404
4.260:433
4.260:468
4.261:489
4.265:483
4.265:468
4.265:454
4.265:450
4.265:461
4.265:456
4.265:443
4.280:454
4.285:454
4.285:456
4.285:454
4.285:449
4.285:442
4.285:440
4.285:440
4.285:446
4.285:469
4.289:470
4.289:461
4.289:461
4.289:472
4.289:483
4.290:472
4.290:457
4.290:454
4.290:436
4.290:426
4.293:423
4.293:436
4.293:452
4.293:465
4.294:456
4.294:443
4.294:441
4.294:428
4.294:414
4.297:401
4.314:401
4.314:406
4.314:428
4.314:454
4.315:474
4.315:477
4.315:452
4.315:433
4.315:438
4.318:460
4.318:489
4.318:494
4.318:484
4.318:475
4.318:467
4.319:457
4.319:476
4.319:479
4.319:468
4.322:466
4.322:468
4.322:465
4.322:467
4.323:461
4.323:442
4.323:431
4.323:447
4.323:446
4.323:442
4.326:448
4.342:458
4.342:449
4.342:453
4.342:449
4.342:454
4.342:466
4.347:457
4.347:440
4.347:449
4.347:473
4.347:469
4.347:464
4.347:459
4.347:461
4.347:452
4.347:450
4.350:449
4.351:456
4.351:463
4.351:479
4.351:479
4.351:471
4.351:460
4.351:462
4.351:456
4.354:417
4.354:410
4.354:430
4.354:455
4.355:482
4.371:482
4.371:486
4.371:468
4.371:456
4.371:443
4.375:448
4.375:448
4.375:444
4.375:456
4.375:467
4.375:477
4.375:477
4.375:466
4.375:459
4.376:442
4.379:417
4.379:416
4.379:438
4.379:433
4.379:435
4.379:443
4.379:452
4.380:470
4.380:484
4.383:483
4.383:476
4.383:470
4.383:461
4.383:453
4.383:461
4.399:476
4.399:471
4.404:471
4.404:474
4.404:476
4.404:461
4.404:451
4.404:443
4.404:424
4.404:408
4.404:407
4.405:409
4.408:405
4.408:433
4.408:495
4.408:523
4.408:501
4.408:481
4.408:478
4.408:491
4.408:496
4.412:496
4.412:489
4.412:497
4.412:510
4.412:517
4.412:502
4.412:496
4.412:488
4.412:472
4.428:472
4.432:469
4.432:486
4.433:497
4.433:507
4.433:493
4.433:480
4.433:464
4.433:441
4.433:448
4.433:461
4.437:472
4.437:473
4.437:488
4.437:496
4.437:510
4.437:531
4.438:522
4.438:509
4.438:498
4.441:483
4.441:490
4.441:493
4.441:480
4.441:477
4.441:487
4.441:492
4.441:488
4.442:491
4.442:495
4.461:490
4.461:468
4.461:473
4.461:505
4.461:518
4.462:541
4.462:549
4.462:529
4.465:511
4.465:515
4.465:504
4.465:501
4.466:506
4.466:500
4.466:506
4.466:521
4.466:519
4.469:498
4.470:499
4.470:508
4.470:502
4.470:488
4.470:468
4.470:448
4.471:445
4.471:441
4.471:443
4.473:458
4.473:466
4.473:475
4.490:475
4.490:475
4.490:469
4.490:465
4.490:466
4.490:455
4.491:447
4.494:432
4.494:428
4.494:417
4.494:398
4.494:387
4.495:388
4.495:380
4.495:378
4.495:404
4.498:452
4.498:505
4.498:534
4.498:513
4.498:467
4.499:455
4.499:448
4.499:441
4.499:434
4.499:448
4.502:468
4.502:484
4.502:490
4.502:501
4.518:492
4.518:478
4.518:474
4.519:477
4.522:480
4.522:483
4.523:493
4.523:485
4.523:477
4.523:489
4.523:477
4.523:467
4.524:459
4.527:469
4.527:464
4.527:454
4.527:444
4.528:450
4.528:437
4.528:424
4.528:447
4.528:489
4.528:486
4.531:465
4.531:447
4.531:447
4.531:448
4.531:457
4.531:439
4.532:427
4.547:427
4.547:441
4.547:440
4.551:425
4.551:404
4.552:401
4.552:418
4.552:457
4.552:485
4.552:516
4.552:552
4.552:600
4.555:657
4.556:709
4.556:755
4.556:789
4.556:820
4.556:843
4.556:879
4.556:939
4.557:989
4.557:989
4.559:989
4.560:988
4.560:986
4.560:987
4.560:988
4.560:986
4.560:989
4.561:989
4.580:990
4.580:990
4.580:963
4.580:934
4.581:899
4.581:832
4.581:749
4.581:662
4.581:593
4.585:529
4.585:465
4.585:419
4.585:376
4.585:344
4.585:284
4.586:223
4.586:184
4.586:179
4.586:193
4.588:227
4.588:251
4.588:259
4.589:282
4.589:298
4.589:306
4.589:339
4.589:366
4.589:377
4.592:392
4.592:395
4.608:395
4.609:403
4.609:413
4.609:414
4.609:409
4.609:400
4.609:398
4.609:404
4.612:422
4.613:429
4.613:420
4.613:412
4.613:400
4.613:390
4.613:401
4.614:414
4.614:425
4.614:415
4.617:392
4.617:386
4.617:395
4.617:407
4.617:409
4.617:401
4.618:393
4.618:386
4.618:384
4.620:403
4.621:403
4.621:397
4.637:414
4.637:406
4.637:405
4.637:397
4.638:385
4.642:378
4.642:391
4.642:404
4.642:431
4.642:442
4.642:452
4.643:465
4.643:443
4.643:431
4.645:439
4.646:453
4.646:454
4.646:439
4.646:422
4.646:414
4.647:402
4.647:398
4.647:393
4.647:404
4.650:400
4.650:396
4.650:406
4.650:433
4.650:467
4.651:487
4.666:487
4.666:497
4.666:481
4.666:457
4.670:450
4.670:456
4.670:464
4.671:474
4.671:482
4.671:488
4.671:484
4.671:459
4.671:451
4.671:450
4.674:445
4.674:428
4.674:422
4.674:436
4.675:460
4.675:483
4.675:501
4.675:509
4.675:494
4.678:477
4.678:470
4.678:445
4.678:445
4.678:479
4.679:500
4.679:482
4.694:476
4.698:470
4.698:464
4.698:464
4.699:473
4.699:485
4.699:482
4.699:470
4.699:464
4.699:462
4.702:457
4.703:459
4.703:469
4.703:486
4.703:510
4.703:509
4.703:496
4.704:484
4.704:473
4.704:458
4.706:467
4.707:480
4.707:471
4.707:465
4.707:471
4.707:486
4.707:492
4.708:513
4.708:525
4.710:521
4.728:521
4.728:509
4.728:503
4.728:500
4.728:497
4.728:496
4.729:492
4.729:486
4.729:486
4.731:489
4.732:485
4.732:497
4.732:511
4.732:525
4.732:514
4.733:498
4.733:483
4.733:483
4.733:509
4.736:533
4.736:561
4.736:553
4.736:547
4.736:543
4.737:537
4.737:540
4.737:530
4.737:537
4.737:557
4.739:569
4.756:566
4.756:554
4.756:531
4.757:521
4.757:518
4.757:524
4.760:539
4.761:566
4.761:580
4.761:583
4.761:576
4.762:567
4.762:563
4.762:560
4.762:554
4.762:558
4.764:568
4.765:578
4.765:577
4.765:575
4.765:580
4.766:576
4.766:578
4.766:564
4.766:559
4.768:561
4.768:556
4.769:558
4.769:555
4.769:561
4.785:561
4.785:581
4.785:600
4.785:611
4.785:613
4.789:608
4.789:596
4.789:577
4.790:574
4.790:563
4.790:559
4.790:564
4.791:577
4.791:593
4.791:603
4.793:601
4.793:597
4.794:585
4.794:573
4.794:557
4.794:564
4.794:582
4.795:588
4.795:571
4.797:555
4.797:559
4.797:584
4.798:613
4.798:642
4.798:644
4.813:633
4.813:605
4.817:593
4.817:583
4.817:574
4.818:578
4.818:569
4.818:581
4.818:586
4.818:582
4.819:562
4.819:555
4.821:556
4.821:569
4.821:583
4.822:585
4.822:558
4.822:549
4.822:556
4.822:550
4.823:537
4.825:509
4.825:465
4.826:456
4.826:485
4.826:523
4.826:545
4.826:543
4.827:527
4.827:512
4.841:512
4.846:499
4.846:487
4.846:499
4.846:480
4.847:468
4.847:482
4.847:485
4.847:472
4.848:460
4.848:462
4.850:454
4.851:441
4.851:427
4.851:428
4.851:419
4.852:405
4.852:403
4.852:395
4.852:387
4.854:383
4.855:385
4.855:403
4.855:418
4.855:406
4.855:390
4.856:378
4.856:371
4.856:382
4.856:374
4.875:358
4.875:360
4.875:382
4.875:385
4.875:371
4.876:379
4.876:381
4.876:372
4.879:375
4.879:385
4.879:400
4.879:410
4.880:396
4.880:401
4.880:407
4.880:397
4.880:384
4.883:375
4.883:368
4.883:364
4.883:366
4.884:359
4.884:345
4.884:340
4.884:346
4.885:365
4.885:367
4.887:356
4.887:368
4.887:387
4.903:387
4.903:402
4.904:388
4.904:393
4.904:400
4.904:391
4.904:372
4.908:383
4.908:383
4.908:402
4.908:399
4.909:384
4.909:378
4.909:368
4.909:371
4.910:384
4.912:391
4.912:382
4.912:374
4.912:386
4.912:405
4.913:435
4.913:441
4.913:417
4.913:396
4.913:395
4.916:393
4.916:386
4.916:399
4.916:405
4.932:404
4.932:414
4.932:414
4.936:409
4.936:414
4.937:410
4.937:381
4.937:372
4.937:394
4.937:414
4.938:430
4.938:445
4.938:435
4.940:413
4.941:407
4.941:421
4.941:439
4.941:432
4.942:426
4.942:430
4.942:423
4.942:431
4.942:431
4.944:419
4.944:410
4.945:421
4.945:426
4.945:419
4.945:419
4.945:411
4.961:411
4.961:423
4.961:426
4.965:422
4.965:419
4.965:406
4.965:410
4.966:409
4.966:401
4.966:394
4.966:401
4.967:410
4.969:432
4.969:466
4.969:492
4.970:487
4.970:473
4.970:465
4.970:463
4.970:471
4.971:456
4.971:451
4.973:444
4.973:433
4.974:451
4.974:457
4.974:453
4.974:459
4.974:459
4.975:452
4.994:451
4.994:441
4.994:429
4.994:429
4.994:445
4.995:436
4.995:448
4.995:442
4.995:419
4.998:430
4.998:453
4.998:453
4.998:443
4.999:437
4.999:435
4.999:435
4.999:440
4.999:447
5.002:443
5.002:451
5.002:451
5.002:439
5.003:428
5.003:403
5.003:397
5.003:388
5.003:398
5.004:421
5.006:431
5.006:444
5.022:444
5.022:465
5.023:467
5.023:464
5.023:477
5.023:486
5.023:473
5.024:462
5.026:461
5.026:467
5.027:462
5.027:453
5.027:438
5.027:425
5.027:422
5.028:425
5.028:452
5.028:478
5.030:483
5.031:487
5.031:476
5.031:463
5.031:460
5.031:453
5.032:446
5.032:438
5.032:435
5.034:442
5.034:438
5.035:421
5.051:441
5.051:463
5.051:468
5.051:461
5.052:454
5.055:435
5.055:428
5.055:442
5.055:443
5.055:462
5.055:461
5.055:439
5.055:437
5.056:463
5.059:473
5.059:463
5.059:450
5.059:440
5.059:432
5.060:441
5.060:462
5.060:474
5.060:474
5.060:464
5.063:483
5.063:484
5.063:467
5.063:470
5.064:462
5.064:455
5.079:455
5.079:454
5.080:458
5.080:423
5.083:391
5.084:392
5.084:395
5.084:412
5.084:438
5.084:453
5.084:477
5.085:498
5.085:502
5.085:478
5.088:465
5.088:458
5.088:478
5.088:506
5.088:500
5.088:482
5.089:474
5.089:460
5.089:448
5.092:447
5.092:452
5.092:462
5.092:469
5.092:462
5.092:448
5.093:437
5.108:443
5.112:445
5.112:445
5.113:455
5.113:480
5.113:493
5.113:489
5.113:481
5.113:478
5.113:469
5.116:470
5.116:465
5.117:448
5.117:447
5.117:465
5.117:472
5.117:461
5.117:451
5.117:440
5.118:437
5.120:439
5.121:442
5.121:436
5.121:441
5.121:444
5.121:449
5.121:455
5.121:462
5.122:466
5.124:467
5.141:467
5.141:472
5.142:473
5.142:484
5.142:496
5.142:501
5.143:502
5.143:491
5.143:476
5.145:464
5.145:458
5.145:473
5.145:474
5.146:469
5.146:467
5.146:463
5.146:474
5.147:490
5.147:492
5.149:473
5.150:471
5.150:475
5.150:473
5.150:463
5.151:462
5.151:476
5.151:475
5.151:467
5.152:468
5.153:466
5.170:462
5.170:456
5.170:442
5.170:431
5.171:458
5.171:468
5.174:475
5.174:480
5.174:489
5.175:501
5.175:501
5.175:492
5.175:523
5.176:537
5.176:516
5.176:500
5.178:487
5.178:487
5.178:504
5.179:501
5.179:505
5.179:506
5.179:507
5.180:508
5.180:516
5.182:539
5.182:540
5.182:547
5.183:546
5.183:526
5.198:526
5.198:524
5.199:526
5.199:519
5.199:505
5.203:492
5.203:478
5.203:465
5.204:462
5.204:475
5.204:487
5.204:479
5.205:479
5.205:462
5.205:432
5.207:428
5.207:448
5.207:476
5.208:492
5.208:486
5.208:474
5.208:479
5.209:483
5.209:475
5.211:464
5.211:451
5.211:446
5.211:444
5.212:436
5.212:430
5.227:433
5.227:452
5.231:464
5.232:458
5.232:443
5.232:427
5.232:419
5.232:435
5.232:455
5.232:469
5.233:469
5.233:475
5.234:482
5.235:484
5.235:483
5.235:472
5.235:465
5.235:468
5.236:467
5.236:458
5.236:450
5.240:449
5.240:441
5.240:436
5.240:450
5.241:478
5.241:478
5.241:472
5.241:456
5.242:432
5.255:432
5.260:440
5.260:457
5.260:466
5.261:457
5.261:471
5.261:483
5.261:482
5.262:465
5.262:468
5.262:472
5.264:474
5.264:483
5.264:472
5.265:463
5.265:452
5.265:441
5.265:441
5.266:438
5.266:448
5.268:462
5.268:471
5.268:455
5.269:431
5.269:422
5.269:416
5.269:428
5.269:436
5.270:451
5.270:488
5.288:527
5.289:569
5.289:611
5.289:655
5.289:720
5.290:784
5.290:832
5.290:874
5.292:914
5.293:941
5.293:975
5.293:990
5.293:988
5.294:989
5.294:987
5.294:987
5.294:987
5.297:988
5.297:987
5.297:990
5.298:990
5.298:977
5.298:927
5.298:899
5.299:859
5.299:800
5.299:750
5.300:710
5.301:680
5.301:638
5.317:638
5.317:585
5.317:513
5.318:436
5.318:361
5.318:280
5.318:210
5.321:165
5.321:156
5.322:160
5.322:166
5.322:189
5.322:234
5.323:260
5.323:268
5.323:289
5.325:317
5.326:350
5.326:377
5.326:402
5.327:414
5.327:406
5.327:402
5.327:425
5.328:433
5.328:419
5.329:400
5.329:395
5.330:399
5.330:402
5.345:411
5.346:402
5.346:403
5.350:419
5.350:432
5.350:437
5.351:433
5.351:399
5.351:378
5.351:378
5.352:374
5.352:378
5.352:383
5.354:380
5.354:383
5.354:395
5.355:425
5.355:439
5.355:439
5.355:447
5.356:442
5.356:437
5.356:440
5.358:436
5.358:427
5.358:409
5.358:403
5.359:416
5.359:427
5.359:433
5.374:433
5.374:432
5.375:428
5.378:423
5.379:402
5.379:397
5.379:383
5.379:393
5.380:421
5.380:419
5.380:443
5.380:445
5.383:428
5.383:429
5.383:434
5.383:441
5.384:452
5.384:449
5.384:437
5.384:435
5.385:455
5.385:447
5.387:438
5.387:454
5.387:463
5.387:454
5.388:446
5.388:448
5.388:456
5.388:458
5.407:459
5.407:462
5.407:453
5.407:439
5.408:429
5.408:415
5.408:398
5.408:417
5.408:471
5.412:498
5.412:479
5.412:455
5.412:456
5.412:471
5.412:474
5.412:496
5.413:512
5.413:507
5.416:499
5.416:489
5.416:479
5.416:484
5.416:487
5.416:484
5.416:467
5.417:467
5.417:478
5.417:493
5.419:489
5.420:480
5.436:480
5.436:473
5.436:457
5.436:435
5.436:448
5.436:455
5.436:473
5.437:520
5.440:524
5.440:508
5.441:493
5.441:484
5.441:480
5.441:486
5.441:495
5.441:512
5.441:522
5.441:521
5.444:516
5.444:513
5.444:503
5.444:485
5.444:484
5.445:474
5.445:451
5.445:460
5.445:484
5.448:500
5.448:510
5.448:526
5.464:531
5.464:521
5.464:502
5.465:491
5.465:525
5.468:537
5.469:527
5.469:526
5.469:532
5.469:542
5.469:542
5.469:543
5.469:542
5.469:531
5.472:513
5.473:517
5.473:539
5.473:554
5.473:530
5.473:509
5.473:505
5.473:514
5.474:520
5.474:528
5.477:532
5.477:541
5.477:542
5.477:553
5.477:551
5.477:543
5.493:543
5.493:554
5.493:564
5.493:576
5.497:578
5.497:568
5.497:553
5.497:542
5.498:526
5.498:506
5.498:503
5.498:514
5.498:524
5.501:546
5.501:582
5.501:605
5.501:608
5.502:608
5.502:604
5.502:591
5.502:600
5.502:600
5.502:605
5.505:597
5.505:589
5.505:593
5.506:602
5.506:596
5.506:582
5.506:576
5.521:585
5.525:591
5.525:607
5.525:611
5.526:587
5.526:582
5.526:607
5.526:632
5.526:629
5.526:609
5.530:597
5.530:590
5.530:580
5.530:575
5.530:568
5.530:558
5.531:563
5.531:588
5.531:599
5.531:590
5.534:587
5.534:588
5.534:603
5.534:607
5.534:597
5.535:590
5.535:588
5.535:583
5.535:577
5.538:566
5.554:566
5.554:583
5.554:598
5.554:577
5.555:542
5.555:530
5.555:526
5.555:547
5.555:571
5.559:587
5.559:594
5.559:580
5.559:563
5.559:554
5.560:545
5.560:547
5.560:546
5.560:536
5.560:518
5.563:508
5.563:496
5.563:494
5.563:487
5.563:467
5.564:476
5.564:486
5.564:484
5.564:474
5.566:467
5.567:467
5.583:460
5.583:431
5.584:408
5.584:413
5.584:424
5.584:439
5.587:438
5.588:429
5.588:415
5.588:396
5.588:369
5.589:339
5.589:314
5.589:328
5.589:358
5.590:367
5.591:401
5.592:424
5.592:429
5.592:417
5.592:404
5.593:386
5.593:376
5.593:395
5.593:389
5.595:373
5.596:377
5.596:391
5.596:407
5.596:402
5.612:402
5.612:394
5.612:392
5.613:378
5.613:360
5.616:359
5.616:353
5.616:338
5.617:347
5.617:353
5.617:370
5.617:401
5.618:406
5.618:383
5.618:361
5.620:354
5.621:365
5.621:378
5.621:391
5.621:394
5.622:391
5.622:386
5.622:379
5.622:371
5.624:373
5.624:368
5.624:368
5.625:364
5.625:366
5.625:390
5.640:414
5.640:423
5.644:417
5.645:405
5.645:406
5.645:400
5.645:394
5.646:392
5.646:380
5.646:380
5.646:391
5.647:414
5.649:434
5.649:435
5.649:436
5.649:436
5.650:438
5.650:418
5.650:403
5.650:393
5.651:381
5.653:384
5.653:396
5.653:398
5.653:399
5.654:407
5.654:415
5.654:411
5.654:408
5.655:410
5.669:410
5.673:421
5.673:417
5.674:396
5.674:394
5.674:393
5.674:389
5.675:383
5.675:392
5.675:408
5.675:418
5.677:411
5.678:408
5.678:402
5.678:401
5.678:420
5.679:425
5.679:426
5.679:434
5.679:435
5.681:444
5.681:453
5.681:449
5.681:445
5.682:450
5.682:455
5.682:453
5.682:451
5.682:448
5.682:426
5.702:401
5.702:417
5.702:434
5.702:455
5.702:467
5.702:453
5.702:426
5.702:400
5.706:373
5.706:357
5.706:377
5.706:412
5.706:440
5.706:456
5.706:478
5.706:491
5.706:489
5.710:491
5.710:478
5.710:455
5.710:434
5.710:437
5.710:437
5.710:450
5.711:450
5.711:447
5.711:446
5.714:444
5.714:458
5.714:470
5.730:470
5.730:479
5.731:473
5.731:466
5.731:451
5.731:444
5.731:456
5.735:476
5.735:475
5.735:469
5.735:456
5.735:452
5.735:463
5.735:463
5.735:458
5.735:443
5.739:431
5.739:434
5.739:434
5.739:437
5.739:431
5.739:428
5.740:431
5.740:428
5.740:436
5.740:455
5.743:455
5.743:453
5.743:456
5.743:458
5.758:463
5.758:457
5.758:453
5.762:464
5.762:467
5.762:463
5.763:462
5.763:459
5.763:468
5.763:469
5.763:457
5.763:438
5.763:437
5.766:439
5.767:450
5.767:480
5.767:488
5.767:479
5.767:464
5.767:449
5.767:441
5.767:449
5.767:447
5.771:420
5.771:395
5.771:397
5.771:422
5.771:447
5.771:454
5.771:448
5.787:448
5.787:448
5.787:438
5.791:432
5.791:454
5.791:487
5.791:504
5.791:475
5.791:442
5.792:450
5.792:459
5.792:478
5.795:484
5.795:485
5.795:475
5.795:471
5.796:457
5.796:461
5.796:466
5.796:473
5.796:484
5.796:483
5.799:463
5.799:452
5.799:465
5.799:459
5.800:448
5.800:453
5.800:460
5.800:465
5.820:459
5.820:446
5.820:456
5.820:465
5.820:470
5.820:472
5.820:478
5.820:470
5.820:439
5.825:436
5.825:450
5.825:459
5.825:467
5.825:467
5.825:463
5.825:459
5.825:463
5.825:468
5.829:464
5.829:448
5.829:441
5.829:451
5.829:462
5.829:463
5.830:460
5.830:467
5.830:466
5.830:457
5.833:457
5.833:471
5.848:471
5.849:481
5.849:473
5.849:477
5.849:481
5.849:475
5.849:466
5.849:466
5.854:480
5.854:483
5.854:477
5.854:454
5.854:455
5.854:463
5.854:458
5.854:465
5.854:469
5.858:460
5.858:462
5.858:466
5.858:471
5.858:440
5.858:402
5.858:402
5.858:419
5.858:440
5.858:463
5.861:480
5.862:486
5.862:488
5.878:488
5.878:482
5.878:456
5.878:456
5.878:475
5.882:500
5.882:476
5.882:449
5.882:466
5.882:471
5.882:473
5.882:488
5.882:495
5.882:495
5.886:486
5.886:472
5.886:464
5.886:466
5.886:485
5.886:492
5.886:494
5.886:488
5.886:492
5.886:487
5.890:469
5.890:475
5.890:476
5.890:490
5.890:503
5.890:509
5.906:509
5.906:485
5.906:462
5.906:475
5.911:519
5.911:481
5.911:481
5.911:461
5.911:469
5.911:497
5.911:509
5.911:489
5.911:476
5.914:467
5.914:466
5.914:470
5.915:465
5.915:498
5.915:525
5.915:507
5.915:502
5.915:517
5.915:529
5.918:543
5.918:556
5.918:544
5.918:521
5.918:518
5.918:509
5.918:501
5.934:523
5.938:550
5.939:545
5.939:531
5.939:525
5.939:514
5.939:515
5.939:511
5.939:497
5.939:491
5.944:497
5.944:511
5.944:502
5.944:490
5.944:491
5.944:474
5.944:467
5.944:462
5.944:446
5.944:425
5.948:402
5.948:401
5.948:414
5.948:420
5.948:431
5.948:462
5.948:488
5.948:488
5.948:465
5.951:464
5.967:464
5.968:484
5.968:483
5.968:479
5.968:478
5.968:479
5.968:466
5.968:446
5.968:440
5.972:426
5.972:412
5.972:438
5.972:465
5.972:494
5.972:502
5.972:493
5.973:494
5.973:485
5.973:480
5.976:461
5.976:459
5.976:471
5.976:471
5.976:453
5.976:443
5.976:458
5.976:480
5.977:469
5.980:459
5.980:466
5.997:479
5.997:485
5.997:481
5.997:465
5.997:439
5.997:426
6.001:437
6.001:465
6.001:477
6.001:469
6.001:466
6.002:458
6.002:451
6.002:425
6.002:430
6.002:444
6.005:473
6.005:472
6.005:477
6.005:491
6.005:496
6.006:481
6.006:467
6.006:459
6.006:452
6.009:442
6.009:436
6.009:438
6.009:431
6.009:434
6.025:434
6.025:448
6.026:470
6.026:510
6.026:547
6.029:573
6.030:628
6.030:692
6.030:767
6.030:821
6.030:850
6.030:861
6.031:894
6.031:930
6.031:984
6.033:989
6.034:987
6.034:987
6.034:988
6.034:989
6.034:988
6.034:988
6.034:989
6.034:989
6.037:990
6.037:988
6.037:928
6.038:882
6.038:852
6.038:800
6.054:733
6.054:668
6.058:605
6.058:546
6.058:486
6.058:443
6.058:390
6.058:316
6.058:240
6.058:191
6.058:170
6.058:174
6.062:197
6.062:236
6.062:269
6.062:284
6.062:306
6.062:310
6.062:312
6.062:334
6.062:373
6.066:397
6.066:401
6.066:395
6.066:391
6.066:398
6.066:411
6.066:412
6.066:402
6.066:403
6.082:403
6.086:388
6.086:388
6.086:390
6.087:390
6.087:395
6.087:401
6.087:405
6.087:419
6.087:415
6.087:399
6.090:407
6.090:421
6.090:411
6.090:401
6.090:401
6.090:390
6.090:378
6.091:392
6.091:399
6.095:399
6.095:403
6.095:415
6.095:439
6.095:441
6.095:436
6.095:432
6.095:436
6.095:442
6.095:444
6.115:450
6.115:442
6.115:432
6.115:416
6.115:396
6.115:407
6.115:413
6.119:430
6.119:450
6.119:441
6.119:436
6.119:433
6.119:425
6.119:419
6.120:423
6.120:411
6.120:417
6.123:430
6.123:431
6.123:431
6.123:429
6.123:453
6.124:471
6.124:477
6.124:484
6.124:487
6.124:494
6.127:488
6.127:468
6.127:450
6.143:450
6.144:430
6.144:428
6.144:456
6.144:479
6.144:473
6.144:477
6.148:480
6.148:454
6.148:429
6.148:445
6.148:462
6.148:457
6.148:455
6.148:455
6.148:441
6.152:437
6.152:450
6.152:474
6.152:468
6.152:459
6.152:471
6.152:478
6.152:471
6.152:468
6.152:480
6.155:480
6.156:481
6.156:481
6.156:479
6.172:479
6.172:487
6.172:486
6.176:476
6.177:470
6.177:469
6.177:463
6.177:452
6.177:450
6.177:477
6.177:511
6.177:513
6.177:504
6.181:512
6.181:511
6.181:493
6.181:482
6.181:477
6.181:465
6.181:468
6.181:467
6.181:457
6.185:445
6.185:434
6.185:464
6.185:495
6.185:506
6.185:505
6.185:525
6.185:545
6.201:545
6.201:557
6.205:558
6.205:551
6.205:546
6.206:543
6.206:540
6.206:530
6.206:525
6.206:512
6.206:492
6.206:489
6.210:506
6.210:527
6.210:541
6.210:536
6.210:523
6.210:534
6.210:558
6.210:559
6.210:553
6.210:537
6.213:530
6.213:532
6.214:548
6.214:552
6.214:543
6.214:545
6.214:551
6.214:543
6.234:524
6.234:517
6.234:544
6.234:570
6.234:574
6.234:559
6.234:556
6.234:552
6.235:550
6.238:550
6.238:558
6.238:565
6.238:565
6.238:568
6.238:574
6.238:564
6.238:567
6.238:580
6.242:570
6.242:569
6.242:578
6.242:574
6.242:588
6.242:605
6.242:591
6.242:585
6.242:599
6.243:603
6.246:610
6.246:606
6.262:606
6.262:596
6.262:583
6.262:572
6.262:553
6.262:568
6.263:583
6.263:567
6.267:556
6.267:550
6.267:566
6.267:585
6.267:605
6.267:615
6.267:609
6.267:612
6.267:614
6.271:612
6.271:615
6.271:610
6.271:602
6.271:583
6.271:575
6.271:579
6.271:582
6.272:584
6.272:587
6.274:595
6.275:595
6.275:603
6.291:612
6.291:614
6.291:609
6.291:608
6.291:602
6.295:584
6.295:576
6.296:567
6.296:557
6.296:550
6.296:560
6.296:596
6.296:598
6.296:585
6.300:580
6.300:564
6.300:536
6.300:507
6.300:507
6.300:513
6.300:507
6.300:512
6.300:503
6.300:496
6.304:499
6.304:500
6.304:504
6.304:492
6.304:464
6.304:451
6.320:451
6.320:462
6.320:470
6.320:480
6.325:477
6.325:458
6.325:448
6.325:444
6.325:447
6.325:442
6.325:436
6.325:424
6.325:416
6.328:411
6.328:396
6.328:383
6.329:377
6.329:376
6.329:380
6.329:388
6.329:382
6.329:376
6.329:379
6.332:390
6.332:389
6.332:387
6.332:382
6.332:369
6.332:372
6.332:369
6.348:365
6.352:363
6.352:369
6.352:376
6.353:371
6.353:372
6.353:373
6.353:405
6.353:425
6.353:409
6.357:396
6.358:383
6.358:357
6.358:346
6.358:347
6.358:355
6.358:354
6.358:357
6.358:355
6.359:363
6.361:394
6.361:403
6.361:416
6.361:417
6.362:404
6.362:386
6.362:389
6.362:391
6.362:384
6.365:351
6.382:351
6.382:331
6.382:358
6.382:381
6.382:397
6.383:411
6.383:414
6.383:398
6.383:392
6.385:402
6.386:405
6.386:401
6.386:392
6.386:381
6.386:390
6.386:385
6.386:392
6.387:413
6.387:400
6.390:397
6.390:399
6.390:415
6.390:428
6.391:440
6.391:428
6.391:421
6.391:411
6.391:415
6.393:420
6.393:422
6.410:424
6.410:417
6.410:411
6.410:404
6.410:397
6.410:405
6.415:414
6.415:419
6.415:415
6.415:409
6.415:409
6.415:404
6.415:398
6.415:401
6.415:416
6.415:431
6.418:426
6.418:411
6.418:406
6.418:376
6.418:390
6.418:406
6.418:406
6.418:402
6.418:418
6.422:441
6.422:459
6.422:464
6.422:459
6.422:430
6.438:430
6.438:420
6.438:425
6.438:440
6.438:458
6.444:457
6.444:450
6.444:459
6.444:467
6.444:469
6.444:470
6.444:464
6.444:446
6.444:437
6.444:428
6.448:432
6.448:439
6.448:448
6.448:438
6.448:438
6.448:468
6.448:478
6.448:469
6.448:451
6.451:445
6.451:443
6.451:444
6.451:443
6.451:445
6.451:442
6.467:433
6.467:418
6.472:415
6.472:435
6.472:446
6.472:441
6.472:436
6.472:443
6.472:448
6.472:442
6.472:445
6.473:472
6.476:497
6.476:483
6.476:469
6.476:469
6.476:466
6.476:452
6.476:426
6.476:420
6.476:436
6.480:449
6.480:462
6.480:465
6.480:465
6.480:469
6.480:473
6.480:475
6.480:471
6.480:442
6.496:442
6.500:433
6.501:443
6.501:442
6.501:435
6.501:431
6.501:430
6.501:446
6.501:464
6.501:465
6.501:448
6.504:464
6.504:479
6.504:459
6.504:438
6.504:419
6.505:425
6.505:448
6.505:451
6.505:441
6.509:434
6.509:442
6.509:473
6.509:481
6.509:482
6.509:490
6.509:480
6.509:483
6.509:483
6.509:484
6.529:480
6.529:468
6.529:478
6.529:488
6.529:478
6.529:474
6.529:464
6.533:457
6.533:444
6.534:418
6.534:417
6.534:439
6.534:456
6.534:461
6.534:462
6.534:468
6.534:459
6.538:450
6.538:447
6.538:458
6.538:470
6.538:465
6.538:448
6.538:437
6.538:430
6.538:442
6.538:467
6.541:486
6.541:491
6.541:472
6.557:472
6.558:451
6.558:449
6.558:458
6.558:456
6.558:461
6.558:467
6.562:464
6.562:452
6.562:440
6.562:450
6.562:480
6.562:489
6.562:468
6.562:448
6.562:451
6.565:469
6.565:482
6.566:482
6.566:469
6.566:457
6.566:452
6.566:451
6.566:449
6.566:467
6.566:482
6.569:489
6.569:494
6.569:493
6.569:484
6.585:474
6.585:467
6.586:455
6.591:460
6.591:461
6.591:448
6.591:444
6.591:445
6.591:443
6.591:453
6.591:466
6.591:474
6.591:447
6.594:410
6.594:419
6.594:459
6.594:503
6.594:529
6.595:510
6.595:489
6.595:482
6.595:483
6.599:475
6.599:472
6.599:475
6.599:483
6.599:480
6.599:481
6.599:470
6.599:460
6.615:460
6.615:456
6.619:458
6.619:481
6.619:487
6.619:487
6.619:480
6.619:462
6.620:454
6.620:463
6.620:473
6.620:475
6.623:469
6.623:470
6.623:475
6.623:483
6.623:495
6.623:480
6.624:447
6.624:456
6.624:457
6.624:466
6.627:467
6.627:462
6.627:459
6.627:471
6.627:497
6.627:521
6.628:530
6.628:523
6.648:510
6.648:499
6.648:482
6.648:450
6.648:443
6.648:439
6.648:433
6.648:439
6.648:454
6.652:457
6.652:470
6.652:514
6.652:525
6.652:511
6.652:508
6.652:520
6.652:518
6.652:509
6.656:510
6.656:514
6.656:516
6.657:515
6.657:517
6.657:506
6.657:505
6.657:496
6.657:495
6.657:503
6.660:521
6.660:517
6.676:517
6.676:529
6.676:533
6.676:537
6.677:530
6.677:534
6.677:526
6.677:512
6.681:513
6.681:527
6.681:522
6.681:509
6.681:498
6.681:501
6.681:509
6.681:503
6.681:481
6.684:484
6.684:496
6.685:492
6.685:480
6.685:465
6.685:466
6.685:486
6.685:475
6.685:439
6.685:407
6.689:431
6.689:446
6.689:449
6.705:445
6.705:452
6.705:455
6.705:447
6.705:438
6.709:439
6.709:434
6.709:434
6.709:455
6.709:477
6.709:486
6.710:482
6.710:476
6.710:473
6.714:487
6.714:490
6.714:478
6.714:448
6.714:434
6.714:424
6.714:430
6.714:451
6.714:469
6.714:487
6.718:486
6.718:476
6.718:477
6.718:476
6.718:489
6.718:492
6.733:492
6.733:492
6.734:484
6.734:470
6.738:454
6.738:432
6.738:423
6.738:414
6.738:427
6.738:450
6.738:463
6.738:480
6.738:502
6.742:502
6.742:502
6.742:498
6.742:491
6.742:477
6.742:473
6.742:450
6.742:428
6.743:427
6.743:424
6.746:434
6.746:455
6.746:479
6.746:493
6.746:472
6.746:457
6.746:439
6.762:434
6.766:432
6.767:438
6.767:451
6.767:475
6.767:504
6.767:542
6.767:577
6.767:626
6.767:690
6.771:751
6.771:801
6.771:822
6.771:834
6.771:873
6.771:918
6.771:971
6.771:988
6.771:989
6.772:989
6.775:987
6.775:987
6.775:987
6.775:987
6.775:987
6.775:987
6.775:989
6.775:989
6.775:989
6.779:975
6.795:975
6.795:933
6.795:880
6.795:818
6.795:740
6.795:650
6.795:581
6.795:523
6.795:469
6.799:404
6.799:328
6.799:247
6.799:180
6.799:112
6.799:92
6.799:120
6.799:157
6.799:192
6.799:222
6.804:239
6.804:272
6.804:330
6.804:366
6.804:380
6.804:376
6.804:368
6.804:369
6.804:378
6.804:386
6.807:401
6.824:421
6.824:426
6.824:414
6.824:408
6.824:395
6.824:396
6.828:410
6.828:440
6.828:448
6.828:441
6.828:437
6.828:425
6.828:412
6.828:403
6.828:413
6.828:401
6.832:392
6.832:387
6.832:379
6.832:392
6.832:406
6.832:412
6.832:419
6.832:426
6.832:444
6.836:450
6.836:431
6.836:415
6.836:396
6.836:399
6.852:399
6.852:423
6.852:438
6.852:433
6.852:419
6.857:423
6.857:450
6.857:465
6.857:446
6.857:416
6.857:400
6.857:401
6.857:403
6.857:406
6.857:425
6.861:448
6.861:455
6.861:467
6.861:468
6.861:453
6.861:431
6.861:418
6.861:418
6.861:435
6.865:453
6.865:443
6.865:427
6.865:441
6.865:468
6.865:477
6.880:463
6.880:447
6.885:444
6.885:460
6.885:475
6.885:482
6.885:481
6.885:485
6.885:488
6.885:482
6.885:483
6.889:463
6.889:458
6.889:456
6.889:459
6.889:462
6.889:469
6.889:478
6.889:487
6.889:496
6.889:490
6.893:466
6.893:452
6.893:444
6.893:459
6.893:461
6.893:465
6.893:465
6.893:469
6.893:462
6.909:462
6.914:468
6.914:489
6.914:502
6.914:498
6.914:489
6.914:471
6.914:468
6.914:480
6.914:487
6.914:490
6.917:502
6.917:493
6.918:492
6.918:502
6.918:503
6.918:486
6.918:476
6.918:483
6.918:487
6.921:488
6.922:502
6.922:499
6.922:500
6.922:510
6.922:517
6.922:516
6.922:514
6.922:514
6.922:509
6.942:519
6.942:528
6.942:530
6.942:533
6.942:518
6.942:499
6.942:488
6.947:489
6.947:502
6.947:514
6.947:529
6.947:534
6.947:533
6.947:517
6.948:493
6.948:479
6.948:485
6.951:497
6.951:516
6.951:537
6.951:546
6.951:532
6.951:516
6.951:536
6.952:571
6.952:573
6.955:561
6.955:547
6.955:549
6.955:548
6.971:548
6.971:553
6.971:573
6.971:570
6.971:562
6.971:555
6.971:552
6.975:565
6.975:573
6.975:567
6.975:547
6.975:557
6.975:580
6.975:574
6.975:546
6.975:524
6.980:525
6.980:544
6.980:559
6.980:555
6.980:563
6.980:602
6.980:615
6.980:619
6.980:620
6.981:607
6.983:583
6.983:582
6.983:593
6.983:584
7.000:564
7.000:536
7.000:558
7.004:623
7.004:652
7.004:645
7.004:623
7.004:612
7.004:616
7.004:621
7.004:626
7.004:629
7.004:621
7.008:624
7.008:617
7.008:614
7.008:603
7.008:577
7.008:570
7.008:596
7.008:606
7.008:601
7.011:598
7.012:605
7.012:611
7.012:605
7.012:591
7.012:592
7.012:601
7.012:615
7.028:615
7.028:625
7.033:629
7.033:613
7.033:605
7.033:600
7.033:591
7.033:580
7.033:566
7.033:566
7.033:581
7.034:588
7.037:577
7.037:558
7.037:547
7.037:558
7.037:563
7.037:557
7.037:565
7.038:557
7.038:543
7.041:529
7.041:513
7.041:491
7.041:482
7.041:480
7.041:461
7.041:448
7.041:462
7.042:466
7.061:479
7.061:497
7.061:489
7.061:483
7.061:497
7.062:494
7.062:475
7.062:459
7.062:449
7.065:444
7.065:449
7.065:449
7.065:441
7.066:422
7.066:430
7.066:436
7.066:424
7.066:400
7.070:379
7.070:378
7.070:381
7.070:393
7.070:406
7.070:404
7.070:389
7.070:382
7.070:374
7.071:343
7.073:362
7.073:380
7.090:380
7.090:393
7.090:387
7.090:395
7.090:397
7.090:393
7.090:380
7.090:367
7.094:356
7.094:360
7.094:360
7.094:358
7.094:356
7.094:355
7.094:359
7.095:364
7.095:366
7.098:380
7.098:394
7.098:409
7.098:390
7.098:368
7.098:377
7.098:380
7.098:383
7.098:380
7.099:378
7.102:381
7.102:380
7.102:356
7.118:359
7.118:380
7.118:405
7.118:412
7.118:409
7.122:408
7.122:409
7.122:409
7.122:413
7.123:400
7.123:393
7.123:400
7.123:398
7.123:389
7.127:382
7.127:384
7.127:395
7.128:396
7.128:389
7.128:378
7.128:369
7.128:367
7.128:363
7.128:363
7.131:374
7.131:400
7.131:426
7.131:433
7.131:414
7.131:405
7.147:405
7.147:412
7.147:406
7.147:387
7.152:382
7.152:383
7.152:393
7.152:425
7.152:447
7.152:455
7.152:448
7.152:426
7.153:412
7.156:422
7.156:440
7.156:441
7.156:426
7.156:415
7.156:426
7.156:438
7.156:430
7.156:434
7.157:445
7.159:454
7.160:445
7.160:440
7.160:449
7.160:450
7.160:435
7.160:430
7.175:434
7.180:440
7.180:436
7.180:424
7.180:414
7.180:435
7.180:436
7.180:452
7.180:457
7.181:440
7.184:437
7.184:441
7.184:441
7.184:425
7.184:419
7.184:428
7.185:432
7.185:425
7.185:412
7.185:404
7.188:390
7.188:380
7.188:409
7.188:452
7.188:457
7.188:457
7.188:445
7.188:453
7.188:456
7.192:456
7.208:456
7.208:465
7.208:500
7.208:504
7.209:497
7.209:493
7.209:488
7.209:470
7.209:454
7.212:453
7.212:448
7.212:439
7.213:449
7.213:466
7.213:465
7.213:448
7.213:431
7.213:439
7.213:453
7.216:451
7.216:442
7.217:438
7.217:448
7.217:463
7.217:475
7.217:468
7.217:447
7.217:443
7.220:441
7.221:428
7.237:436
7.237:445
7.237:421
7.237:402
7.237:421
7.237:438
7.241:446
7.241:444
7.241:450
7.241:476
7.241:475
7.242:453
7.242:451
7.242:467
7.242:467
7.242:477
7.245:479
7.245:473
7.245:473
7.245:466
7.245:451
7.246:442
7.246:452
7.246:457
7.246:460
7.250:469
7.250:477
7.250:480
7.250:466
7.250:461
7.266:461
7.266:461
7.266:464
7.266:470
7.266:461
7.270:447
7.270:444
7.271:455
7.271:458
7.271:460
7.271:467
7.271:464
7.271:474
7.271:474
7.271:463
7.274:459
7.274:461
7.274:454
7.274:444
7.274:426
7.275:422
7.275:427
7.275:455
7.275:482
7.278:483
7.278:472
7.278:460
7.278:457
7.278:458
7.278:464
7.294:475
7.294:476
7.299:472
7.299:463
7.299:460
7.300:460
7.300:466
7.300:467
7.300:466
7.300:465
7.300:471
7.303:473
7.303:470
7.303:467
7.303:470
7.303:450
7.303:435
7.303:453
7.303:465
7.303:472
7.304:477
7.307:467
7.307:453
7.308:467
7.308:462
7.308:452
7.308:456
7.308:473
7.308:481
7.308:471
7.323:471
7.327:459
7.327:460
7.328:467
7.328:484
7.328:488
7.328:496
7.328:488
7.328:482
7.328:474
7.328:475
7.331:471
7.331:456
7.331:448
7.331:446
7.332:454
7.332:443
7.332:441
7.332:447
7.332:462
7.335:452
7.335:434
7.336:415
7.336:400
7.336:407
7.336:429
7.336:436
7.336:461
7.336:487
7.336:491
7.355:492
7.356:504
7.356:510
7.356:512
7.356:505
7.356:486
7.356:484
7.360:476
7.360:475
7.360:480
7.361:484
7.361:491
7.361:493
7.361:492
7.361:485
7.361:488
7.361:501
7.365:504
7.365:491
7.365:477
7.365:452
7.365:470
7.365:492
7.365:489
7.365:484
7.365:502
7.368:503
7.368:493
7.368:488
7.368:494
7.384:494
7.384:488
7.384:480
7.384:480
7.384:463
7.385:474
7.389:508
7.389:528
7.389:517
7.390:507
7.390:501
7.390:489
7.390:485
7.390:483
7.390:482
7.390:479
7.393:467
7.393:461
7.393:471
7.393:485
7.393:488
7.393:491
7.393:509
7.393:528
7.394:530
7.394:522
7.397:518
7.397:506
7.397:500
7.397:509
7.413:514
7.413:507
7.413:511
7.418:515
7.418:513
7.418:510
7.418:511
7.418:525
7.418:536
7.418:531
7.418:517
7.418:512
7.418:504
7.422:493
7.422:489
7.422:487
7.422:477
7.422:467
7.422:463
7.422:443
7.422:416
7.422:416
7.425:427
7.425:444
7.425:460
7.426:486
7.426:502
7.426:477
7.426:456
7.426:440
7.441:440
7.441:441
7.446:447
7.446:461
7.446:467
7.446:463
7.446:467
7.446:466
7.446:463
7.446:470
7.447:463
7.447:458
7.450:446
7.450:449
7.450:452
7.450:465
7.450:476
7.451:473
7.451:452
7.451:437
7.451:438
7.454:445
7.454:474
7.454:498
7.454:491
7.454:492
7.455:471
7.455:448
7.455:454
7.455:458
7.475:442
7.475:449
7.475:464
7.475:479
7.475:469
7.475:450
7.475:431
7.475:435
7.475:456
7.479:472
7.479:494
7.479:505
7.479:500
7.479:504
7.479:500
7.479:480
7.479:452
7.479:452
7.483:445
7.483:440
7.483:447
7.483:451
7.483:455
7.483:467
7.483:472
7.483:461
7.483:451
7.484:446
7.487:455
7.487:453
7.503:453
7.503:464
7.504:483
7.504:509
7.504:559
7.504:616
7.504:675
7.504:740
7.508:785
7.508:808
7.508:840
7.508:884
7.508:938
7.508:989
7.508:990
7.508:989
7.508:988
7.512:987
7.512:987
7.512:986
7.512:988
7.512:987
7.512:988
7.512:989
7.512:989
7.512:989
7.512:938
7.515:900
7.515:870
7.515:816
7.531:748
7.531:676
7.531:618
7.532:563
7.532:500
7.536:423
7.536:342
7.536:269
7.536:209
7.536:174
7.536:154
7.536:176
7.536:227
7.536:257
7.540:271
7.540:291
7.541:311
7.541:323
7.541:340
7.541:363
7.541:369
7.541:365
7.541:349
7.541:343
7.544:335
7.544:342
7.544:361
7.544:366
7.544:386
7.544:415
7.560:415
7.561:433
7.561:433
7.561:425
7.565:421
7.565:421
7.565:408
7.565:382
7.565:389
7.565:390
7.565:388
7.565:397
7.565:400
7.569:399
7.569:407
7.569:403
7.570:402
7.570:407
7.570:420
7.570:425
7.570:425
7.570:419
7.570:407
7.573:387
7.573:356
7.573:351
7.573:369
7.573:406
7.574:442
7.574:463
7.589:459
7.594:434
7.594:425
7.594:432
7.594:434
7.594:441
7.594:449
7.594:457
7.594:439
7.594:397
7.598:402
7.598:429
7.598:434
7.598:428
7.598:446
7.598:460
7.598:448
7.598:428
7.598:404
7.598:406
7.602:437
7.602:474
7.602:480
7.602:477
7.602:462
7.602:451
7.602:451
7.602:451
7.602:434
7.605:423
7.622:423
7.622:430
7.622:449
7.622:477
7.622:487
7.622:469
7.623:462
7.623:456
7.623:446
7.626:444
7.626:457
7.626:491
7.626:511
7.626:501
7.626:481
7.626:468
7.626:465
7.627:460
7.627:467
7.630:476
7.630:478
7.630:467
7.630:437
7.630:422
7.630:443
7.630:465
7.630:490
7.631:496
7.634:488
7.634:453
7.650:451
7.650:451
7.650:457
7.650:470
7.651:487
7.651:501
7.655:494
7.655:495
7.655:490
7.655:469
7.655:458
7.655:472
7.655:488
7.655:490
7.655:489
7.656:498
7.659:503
7.659:513
7.659:518
7.659:523
7.659:518
7.659:506
7.659:477
7.659:487
7.659:512
7.664:509
7.664:493
7.664:483
7.664:473
7.664:481
7.679:481
7.679:483
7.679:490
7.679:512
7.680:517
7.684:520
7.684:521
7.684:516
7.684:525
7.684:536
7.684:533
7.684:533
7.684:538
7.684:538
7.684:528
7.688:518
7.688:515
7.688:525
7.688:547
7.688:558
7.688:558
7.688:548
7.688:539
7.688:537
7.692:541
7.692:547
7.692:548
7.692:526
7.692:523
7.692:527
7.708:523
7.708:526
7.713:535
7.713:544
7.713:549
7.713:565
7.713:593
7.713:605
7.713:599
7.713:588
7.713:583
7.717:572
7.717:553
7.717:556
7.717:570
7.717:572
7.717:574
7.717:584
7.717:581
7.717:582
7.717:582
7.721:571
7.721:551
7.721:548
7.721:557
7.721:574
7.721:603
7.721:612
7.721:589
7.721:565
7.736:565
7.741:553
7.741:549
7.741:570
7.741:587
7.741:603
7.741:622
7.741:638
7.741:644
7.742:626
7.742:606
7.745:596
7.745:601
7.745:619
7.745:629
7.745:623
7.745:616
7.745:610
7.745:612
7.746:616
7.749:610
7.749:593
7.749:583
7.749:571
7.749:586
7.750:604
7.750:598
7.750:589
7.750:586
7.750:596
7.769:584
7.770:558
7.770:568
7.770:582
7.770:587
7.770:598
7.770:594
7.774:576
7.774:568
7.774:562
7.774:558
7.774:547
7.774:542
7.774:514
7.774:487
7.774:498
7.774:506
7.778:506
7.778:518
7.778:530
7.778:533
7.778:509
7.778:502
7.778:511
7.778:499
7.778:509
7.782:506
7.782:504
7.782:492
7.782:488
7.798:488
7.798:492
7.798:484
7.798:466
7.798:439
7.798:426
7.802:446
7.802:454
7.802:443
7.802:451
7.802:442
7.802:409
7.802:389
7.802:388
7.802:394
7.803:405
7.806:416
7.806:418
7.806:416
7.806:400
7.806:378
7.806:363
7.806:355
7.806:348
7.807:351
7.811:361
7.811:369
7.811:364
7.811:351
7.811:352
7.826:375
7.826:371
7.827:378
7.831:390
7.831:392
7.831:387
7.831:398
7.831:398
7.831:380
7.831:371
7.831:360
7.832:343
7.832:354
7.835:368
7.835:392
7.835:396
7.835:389
7.835:373
7.835:377
7.835:382
7.835:392
7.836:408
7.840:388
7.840:376
7.840:367
7.840:370
7.840:369
7.840:370
7.840:375
7.840:386
7.855:386
7.855:384
7.860:382
7.860:384
7.860:386
7.860:390
7.860:379
7.860:374
7.860:380
7.860:385
7.860:397
7.861:401
7.864:385
7.864:379
7.864:389
7.864:402
7.864:402
7.864:404
7.864:402
7.865:400
7.865:379
7.868:349
7.868:370
7.868:412
7.868:434
7.868:430
7.868:428
7.868:425
7.868:424
7.869:399
7.888:386
7.888:395
7.889:415
7.889:436
7.889:429
7.889:419
7.889:421
7.889:423
7.889:419
7.892:432
7.893:441
7.893:447
7.893:441
7.893:432
7.893:429
7.893:416
7.893:399
7.893:395
7.897:400
7.897:412
7.897:419
7.897:410
7.897:399
7.897:386
7.898:376
7.898:376
7.898:381
7.898:381
7.901:383
7.901:424
7.917:424
7.917:467
7.917:492
7.917:498
7.917:492
7.918:480
7.918:471
7.918:459
7.921:446
7.921:451
7.921:461
7.922:457
7.922:457
7.922:443
7.922:424
7.922:421
7.922:431
7.926:446
7.926:447
7.926:452
7.926:453
7.926:453
7.926:455
7.926:458
7.927:454
7.927:438
7.927:431
7.929:429
7.929:428
7.929:443
7.946:459
7.946:469
7.946:478
7.946:466
7.946:452
7.950:446
7.950:443
7.950:456
7.950:461
7.950:451
7.950:436
7.950:425
7.950:433
7.950:429
7.954:420
7.954:436
7.954:439
7.954:443
7.954:457
7.954:464
7.954:457
7.954:456
7.955:463
7.955:460
7.958:450
7.958:455
7.958:453
7.958:442
7.958:448
7.958:463
7.974:463
7.974:450
7.974:453
7.974:454
7.978:454
7.979:447
7.979:432
7.979:436
7.979:440
7.979:426
7.979:426
7.979:435
7.979:426
7.982:418
7.982:433
7.982:430
7.982:422
7.982:437
7.982:491
7.982:517
7.982:515
7.983:495
7.983:476
7.986:467
7.986:467
7.986:466
7.986:455
7.986:465
7.986:491
7.986:494
8.006:490
8.006:487
8.006:476
8.006:474
8.007:475
8.007:467
8.007:458
8.007:455
8.007:461
8.007:463
8.010:462
8.010:462
8.011:450
8.011:445
8.011:453
8.011:453
8.011:442
8.011:421
8.011:427
8.011:459
8.014:487
8.015:480
8.015:468
8.015:462
8.015:461
8.015:464
8.015:464
8.015:458
8.015:459
8.018:469
8.035:469
8.035:468
8.035:466
8.035:458
8.035:441
8.035:435
8.035:446
8.036:442
8.036:443
8.039:455
8.039:470
8.039:476
8.039:460
8.039:436
8.040:428
8.040:440
8.040:449
8.040:457
8.040:444
8.043:444
8.043:443
8.043:435
8.043:445
8.043:442
8.044:446
8.044:455
8.044:465
8.044:464
8.048:463
8.048:476
8.064:492
8.064:495
8.064:496
8.064:496
8.064:486
8.064:481
8.069:485
8.069:479
8.069:476
8.069:463
8.069:445
8.069:436
8.069:434
8.069:431
8.069:425
8.073:452
8.073:469
8.073:467
8.073:461
8.073:463
8.073:465
8.073:476
8.074:478
8.074:482
8.074:483
8.077:456
8.077:468
8.077:460
8.077:423
8.077:424
8.092:424
8.092:445
8.092:480
8.092:495
8.093:508
8.098:501
8.098:487
8.098:482
8.098:491
8.098:496
8.098:494
8.098:467
8.098:456
8.098:455
8.098:463
8.101:483
8.101:481
8.101:475
8.101:478
8.101:467
8.102:454
8.102:438
8.102:437
8.102:443
8.106:457
8.106:481
8.106:492
8.106:477
8.106:458
8.106:439
8.121:421
8.121:435
8.126:477
8.126:502
8.126:514
8.126:519
8.126:514
8.126:501
8.126:492
8.126:485
8.127:493
8.130:492
8.130:478
8.130:475
8.131:469
8.131:468
8.131:472
8.131:480
8.131:479
8.131:471
8.131:465
8.134:447
8.134:452
8.134:462
8.134:463
8.134:468
8.134:481
8.134:485
8.134:497
8.135:511
8.150:511
8.155:536
8.155:549
8.155:527
8.155:507
8.155:496
8.155:496
8.155:495
8.155:527
8.155:540
8.159:540
8.159:544
8.159:542
8.159:546
8.159:543
8.159:535
8.159:521
8.160:513
8.160:517
8.160:514
8.163:500
8.163:482
8.163:471
8.163:483
8.163:489
8.163:510
8.164:531
8.164:516
8.164:502
8.164:510
8.183:527
8.183:500
8.183:450
8.183:440
8.183:458
8.183:458
8.184:462
8.188:451
8.188:460
8.188:474
8.188:476
8.188:466
8.188:452
8.188:453
8.188:467
8.188:469
8.188:469
8.192:475
8.192:454
8.192:411
8.192:387
8.192:397
8.192:416
8.192:440
8.192:455
8.192:477
8.195:498
8.196:497
8.196:482
8.196:470
8.212:470
8.212:461
8.212:467
8.212:465
8.212:465
8.212:468
8.216:465
8.216:445
8.216:420
8.216:402
8.216:418
8.216:442
8.216:450
8.216:454
8.216:449
8.217:440
8.220:452
8.220:461
8.220:464
8.220:479
8.220:498
8.220:490
8.221:499
8.221:506
8.221:500
8.224:491
8.224:469
8.224:433
8.224:451
8.224:469
8.240:472
8.240:482
8.240:480
8.244:478
8.244:469
8.245:458
8.245:455
8.245:449
8.245:441
8.245:427
8.245:417
8.245:410
8.245:434
8.248:461
8.248:477
8.249:468
8.249:448
8.249:455
8.249:477
8.249:505
8.249:508
8.249:543
8.252:614
8.252:685
8.253:772
8.253:804
8.253:832
8.253:901
8.253:951
8.253:971
8.269:971
8.269:989
8.274:988
8.274:990
8.274:988
8.274:987
8.274:986
8.274:986
8.274:987
8.274:989
8.274:988
8.274:990
8.278:947
8.278:911
8.278:902
8.278:871
8.278:819
8.278:763
8.278:709
8.278:659
8.278:610
8.282:543
8.282:487
8.282:423
8.282:340
8.282:269
8.282:208
8.282:173
8.282:161
8.282:179
8.302:186
8.302:178
8.302:204
8.302:271
8.302:314
8.302:348
8.302:370
8.303:357
8.303:364
8.306:395
8.306:403
8.306:404
8.306:409
8.306:406
8.306:410
8.307:402
8.307:389
8.307:390
8.310:388
8.310:404
8.310:416
8.311:413
8.311:413
8.311:418
8.311:428
8.311:435
8.311:430
8.311:427
8.314:400
8.314:373
8.330:373
8.330:381
8.331:402
8.331:394
8.331:377
8.331:391
8.331:413
8.331:418
8.335:405
8.335:386
8.335:387
8.335:427
8.335:456
8.335:463
8.335:451
8.335:447
8.335:457
8.339:441
8.339:437
8.339:443
8.339:440
8.339:433
8.339:432
8.339:414
8.339:413
8.339:425
8.339:444
8.342:463
8.343:468
8.343:457
8.359:428
8.359:420
8.359:443
8.359:436
8.359:417
8.363:411
8.363:411
8.363:409
8.363:432
8.364:459
8.364:462
8.364:448
8.364:444
8.364:441
8.367:460
8.367:473
8.368:471
8.368:452
8.368:426
8.368:421
8.368:423
8.368:448
8.368:438
8.368:432
8.371:447
8.371:449
8.371:475
8.372:483
8.372:480
8.372:472
8.388:472
8.388:465
8.388:453
8.388:460
8.392:470
8.392:470
8.392:472
8.392:499
8.392:524
8.392:522
8.392:500
8.393:483
8.393:448
8.396:427
8.396:434
8.397:446
8.397:452
8.397:435
8.397:416
8.397:423
8.397:447
8.397:480
8.397:500
8.400:500
8.400:491
8.400:482
8.400:488
8.400:504
8.401:512
8.401:505
8.421:505
8.421:506
8.421:500
8.421:484
8.421:471
8.421:469
8.421:477
8.421:486
8.421:497
8.422:514
8.424:516
8.425:520
8.425:526
8.425:535
8.425:534
8.425:521
8.425:488
8.425:487
8.425:511
8.429:536
8.429:538
8.430:522
8.430:514
8.430:524
8.430:550
8.430:543
8.430:518
8.430:500
8.430:500
8.433:507
8.449:507
8.449:533
8.449:543
8.450:536
8.450:525
8.450:524
8.450:540
8.450:557
8.450:560
8.454:542
8.454:531
8.454:535
8.454:538
8.454:562
8.454:565
8.454:529
8.454:502
8.454:500
8.454:508
8.457:533
8.457:536
8.458:536
8.458:516
8.458:514
8.458:529
8.458:561
8.458:596
8.458:597
8.462:571
8.462:553
8.478:564
8.478:582
8.478:594
8.478:613
8.478:608
8.478:582
8.482:574
8.482:582
8.482:574
8.482:562
8.482:568
8.482:595
8.482:608
8.483:619
8.483:628
8.487:623
8.487:613
8.487:593
8.487:589
8.487:580
8.487:553
8.487:554
8.487:574
8.487:585
8.487:591
8.490:601
8.490:614
8.490:607
8.490:587
8.490:574
8.506:574
8.506:584
8.506:594
8.506:599
8.506:605
8.511:605
8.511:610
8.511:611
8.511:622
8.511:625
8.511:631
8.511:641
8.511:642
8.511:621
8.512:597
8.514:586
8.514:578
8.514:569
8.515:596
8.515:614
8.515:601
8.515:584
8.515:583
8.515:584
8.519:586
8.519:580
8.519:582
8.519:578
8.519:564
8.519:547
8.535:532
8.535:529
8.540:532
8.540:550
8.540:561
8.540:559
8.540:539
8.540:525
8.540:522
8.540:499
8.540:482
8.544:474
8.544:490
8.544:502
8.544:507
8.544:510
8.544:504
8.544:494
8.544:480
8.544:456
8.544:432
8.548:422
8.548:428
8.548:438
8.548:455
8.548:443
8.548:411
8.548:405
8.548:392
8.548:363
8.563:363
8.568:365
8.568:396
8.568:430
8.568:443
8.568:455
8.568:451
8.568:434
8.568:411
8.568:377
8.572:355
8.572:359
8.572:359
8.572:360
8.572:354
8.572:350
8.572:351
8.572:346
8.572:358
8.573:370
8.576:377
8.576:384
8.576:383
8.576:388
8.576:387
8.576:388
8.576:391
8.576:376
8.576:367
8.576:353
8.596:366
8.596:394
8.596:373
8.596:356
8.596:368
8.597:407
8.597:383
8.601:361
8.601:351
8.601:352
8.601:363
8.601:377
8.601:385
8.602:394
8.602:403
8.602:408
8.602:415
8.605:416
8.605:410
8.605:390
8.605:375
8.605:368
8.605:370
8.605:387
8.605:374
8.606:367
8.609:382
8.609:392
8.610:392
8.610:400
8.625:400
8.625:416
8.625:435
8.626:445
8.626:451
8.626:428
8.629:409
8.630:399
8.630:400
8.630:419
8.630:427
8.630:417
8.630:412
8.630:421
8.630:414
8.630:408
8.634:417
8.634:427
8.634:420
8.634:412
8.634:412
8.634:407
8.634:409
8.634:425
8.634:443
8.637:437
8.638:430
8.638:429
8.638:399
8.638:400
8.654:429
8.654:434
8.654:415
8.659:412
8.659:409
8.659:412
8.659:424
8.659:436
8.659:430
8.659:416
8.659:408
8.660:415
8.660:422
8.662:407
8.662:414
8.662:446
8.663:447
8.663:407
8.663:399
8.663:413
8.663:428
8.663:450
8.667:446
8.667:414
8.667:414
8.667:429
8.667:444
8.667:457
8.667:438
8.667:402
8.683:402
8.683:403
8.686:440
8.686:473
8.686:478
8.686:473
8.686:478
8.687:477
8.687:430
8.687:422
8.687:426
8.687:430
8.691:446
8.691:467
8.691:462
8.691:437
8.691:433
8.691:437
8.691:441
8.691:445
8.692:434
8.695:435
8.695:437
8.695:437
8.695:438
8.695:438
8.695:431
8.695:433
8.695:441
8.695:443
8.715:461
8.715:477
8.715:481
8.715:467
8.715:461
8.715:459
8.716:451
8.716:442
8.716:424
8.719:435
8.719:458
8.719:461
8.719:445
8.719:451
8.720:471
8.720:486
8.720:482
8.720:482
8.724:486
8.724:478
8.724:487
8.724:493
8.724:474
8.724:444
8.724:414
8.724:410
8.725:419
8.725:434
8.727:468
8.727:477
8.744:477
8.744:460
8.744:442
8.744:449
8.744:446
8.744:445
8.745:464
8.745:475
8.748:478
8.748:476
8.748:485
8.748:479
8.748:461
8.749:440
8.749:415
8.749:395
8.749:407
8.753:432
8.753:455
8.753:479
8.753:457
8.753:450
8.753:468
8.753:471
8.753:465
8.753:477
8.754:483
8.756:485
8.756:471
8.756:460
8.772:457
8.772:449
8.772:441
8.772:448
8.777:462
8.777:472
8.777:454
8.777:445
8.778:440
8.778:438
8.778:450
8.778:461
8.778:447
8.778:443
8.781:441
8.781:444
8.781:453
8.781:458
8.781:452
8.781:468
8.782:491
8.782:493
8.782:499
8.782:487
8.785:468
8.785:455
8.785:438
8.785:428
8.785:427
8.785:433
8.801:433
8.801:446
8.801:448
8.802:440
8.805:424
8.806:446
8.806:475
8.806:487
8.806:496
8.806:510
8.806:517
8.806:514
8.806:502
8.810:493
8.810:492
8.810:484
8.810:478
8.810:477
8.810:470
8.810:452
8.810:443
8.811:442
8.811:451
8.814:461
8.814:458
8.814:425
8.814:415
8.814:431
8.814:446
8.814:469
8.834:484
8.834:481
8.834:469
8.834:478
8.834:483
8.834:478
8.834:480
8.835:476
8.835:457
8.835:452
8.839:461
8.839:477
8.839:482
8.839:487
8.839:483
8.839:489
8.839:489
8.839:480
8.840:468
8.843:442
8.843:425
8.843:428
8.843:439
8.843:457
8.843:481
8.843:478
8.843:459
8.844:452
8.844:455
8.847:454
8.863:454
8.863:454
8.863:455
8.863:469
8.863:490
8.863:505
8.864:516
8.864:511
8.864:484
8.867:459
8.867:466
8.867:471
8.867:468
8.867:460
8.868:460
8.868:485
8.868:485
8.868:476
8.868:448
8.871:457
8.871:487
8.871:492
8.871:496
8.871:481
8.872:464
8.872:451
8.872:432
8.872:424
8.875:441
8.875:479
8.892:505
8.892:505
8.892:484
8.892:469
8.892:479
8.892:498
8.895:521
8.895:528
8.896:515
8.896:511
8.896:503
8.896:495
8.896:487
8.896:486
8.896:466
8.899:453
8.900:466
8.900:458
8.900:440
8.900:457
8.900:457
8.900:467
8.900:497
8.900:492
8.900:466
8.904:476
8.904:506
8.904:515
8.904:516
8.904:499
8.920:499
8.920:497
8.920:503
8.920:492
8.920:491
8.925:495
8.925:511
8.925:520
8.925:521
8.925:515
8.925:494
8.925:497
8.925:511
8.925:518
8.925:527
8.928:533
8.928:533
8.928:540
8.928:540
8.928:538
8.928:525
8.928:520
8.929:522
8.929:540
8.932:524
8.932:508
8.932:512
8.932:509
8.932:497
8.932:497
8.948:515
8.948:527
8.952:497
8.953:464
8.953:435
8.953:433
8.953:448
8.953:450
8.953:438
8.953:426
8.953:423
8.958:428
8.958:438
8.958:438
8.958:445
8.958:478
8.958:501
8.958:500
8.958:495
8.958:470
8.959:451
8.961:444
8.961:442
8.961:450
8.961:455
8.961:459
8.961:480
8.961:487
8.961:474
8.962:468
8.977:468
8.982:450
8.982:443
8.982:434
8.982:417
8.982:430
8.983:457
8.983:479
8.983:490
8.983:471
8.986:461
8.986:466
8.986:464
8.986:463
8.986:454
8.986:452
8.986:459
8.987:476
8.987:492
8.987:488
8.990:486
8.990:480
8.990:472
8.990:464
8.990:464
8.990:463
8.991:459
8.991:460
8.991:459
8.994:458
9.010:466
9.010:463
9.011:463
9.011:470
9.011:482
9.011:485
9.012:475
9.015:471
9.015:473
9.015:464
9.015:455
9.015:427
9.015:414
9.016:412
9.016:412
9.016:425
9.016:447
9.018:463
9.018:502
9.019:558
9.019:592
9.019:623
9.019:704
9.019:771
9.020:809
9.020:850
9.022:889
9.022:923
9.022:956
9.023:991
9.038:991
9.039:989
9.039:989
9.039:987
9.039:988
9.040:988
9.043:987
9.043:988
9.043:987
9.044:988
9.044:989
9.044:989
9.044:979
9.045:919
9.045:860
9.045:803
9.048:748
9.048:702
9.048:664
9.049:611
9.049:530
9.049:443
9.049:367
9.050:285
9.050:212
9.051:155
9.051:130
9.052:146
9.052:184
9.052:211
9.068:241
9.068:265
9.068:290
9.072:318
9.072:343
9.072:368
9.073:381
9.073:382
9.073:381
9.073:380
9.074:386
9.074:395
9.074:395
9.076:386
9.076:372
9.076:384
9.077:421
9.077:442
9.077:426
9.077:389
9.078:387
9.078:395
9.080:399
9.080:410
9.080:419
9.081:426
9.081:427
9.081:436
9.081:436
9.082:426
9.096:426
9.096:405
9.100:393
9.101:394
9.101:402
9.101:418
9.102:422
9.102:407
9.102:391
9.102:392
9.102:412
9.103:437
9.105:435
9.105:430
9.105:435
9.105:437
9.106:442
9.106:448
9.106:452
9.106:453
9.107:441
9.109:418
9.109:401
9.109:397
9.109:416
9.110:443
9.110:449
9.110:445
9.110:432
9.111:405
9.129:404
9.130:433
9.130:454
9.130:459
9.130:446
9.130:454
9.130:462
9.130:455
9.130:460
9.132:456
9.133:449
9.133:453
9.133:459
9.133:446
9.134:454
9.134:465
9.134:454
9.134:459
9.136:470
9.137:472
9.137:459
9.137:431
9.137:413
9.138:407
9.138:419
9.138:444
9.138:449
9.139:457
9.140:465
9.141:471
9.157:471
9.157:476
9.157:476
9.158:481
9.158:491
9.158:496
9.158:494
9.159:497
9.161:509
9.161:520
9.162:501
9.162:477
9.162:489
9.162:490
9.163:487
9.163:492
9.163:494
9.165:504
9.166:485
9.166:451
9.166:437
9.166:445
9.167:470
9.167:475
9.167:493
9.167:503
9.168:499
9.170:492
9.170:479
9.170:477
9.186:483
9.186:474
9.186:478
9.186:491
9.190:496
9.191:490
9.191:480
9.191:481
9.192:487
9.192:506
9.192:517
9.192:533
9.192:526
9.193:518
9.195:501
9.195:484
9.195:483
9.195:475
9.195:467
9.196:460
9.196:476
9.196:469
9.196:452
9.199:482
9.199:537
9.199:559
9.199:547
9.199:533
9.199:521
9.199:536
9.214:536
9.214:545
9.215:571
9.215:586
9.219:585
9.219:574
9.219:566
9.219:558
9.220:552
9.220:540
9.220:532
9.220:546
9.220:553
9.224:540
9.224:546
9.224:563
9.224:569
9.225:573
9.225:560
9.225:545
9.225:542
9.226:550
9.226:559
9.227:571
9.227:572
9.228:578
9.228:572
9.228:578
9.228:574
9.229:574
9.248:585
9.248:589
9.248:586
9.249:583
9.249:586
9.249:590
9.249:580
9.250:573
9.250:577
9.250:579
9.252:585
9.252:576
9.252:568
9.253:570
9.253:578
9.253:580
9.253:581
9.254:587
9.254:596
9.256:609
9.256:604
9.256:581
9.256:554
9.257:540
9.257:550
9.257:584
9.257:594
9.258:609
9.258:587
9.260:577
9.277:577
9.277:589
9.277:591
9.277:581
9.278:578
9.278:584
9.278:598
9.278:619
9.278:632
9.281:623
9.281:620
9.281:630
9.281:631
9.282:627
9.282:626
9.282:627
9.282:623
9.283:631
9.283:626
9.285:580
9.285:564
9.285:569
9.285:584
9.286:600
9.286:588
9.287:580
9.287:588
9.287:583
9.289:566
9.289:570
9.305:568
9.305:564
9.305:560
9.305:560
9.305:549
9.305:543
9.309:529
9.309:520
9.309:516
9.309:525
9.310:527
9.310:523
9.310:505
9.310:504
9.310:514
9.314:501
9.314:479
9.314:465
9.314:437
9.314:422
9.314:422
9.314:430
9.314:417
9.314:401
9.314:400
9.318:399
9.318:396
9.318:420
9.318:444
9.318:444
9.334:444
9.334:410
9.334:384
9.334:390
9.334:406
9.338:415
9.338:441
9.338:443
9.338:415
9.339:399
9.339:388
9.339:383
9.339:380
9.339:381
9.342:394
9.343:398
9.343:396
9.343:379
9.343:366
9.343:352
9.343:349
9.343:361
9.343:371
9.343:365
9.346:343
9.346:330
9.346:316
9.346:318
9.346:339
9.346:368
9.362:387
9.362:387
9.366:389
9.366:385
9.366:372
9.366:358
9.366:354
9.367:356
9.367:357
9.367:367
9.367:377
9.371:383
9.371:380
9.371:383
9.371:392
9.371:383
9.371:380
9.371:374
9.371:360
9.371:361
9.371:383
9.375:385
9.375:385
9.375:378
9.375:367
9.375:362
9.375:340
9.375:339
9.375:374
9.375:416
9.390:416
9.396:438
9.396:445
9.396:459
9.396:461
9.396:428
9.396:421
9.396:434
9.396:431
9.396:434
9.400:449
9.400:445
9.400:425
9.400:418
9.400:409
9.400:394
9.400:370
9.400:382
9.400:406
9.400:404
9.404:394
9.404:388
9.404:374
9.404:372
9.404:384
9.404:417
9.404:452
9.404:465
9.404:450
9.408:446
9.424:452
9.424:451
9.424:450
