539
551
558
588
572
598
599
604
595
548
538
483
494
466
422
421
438
404
432
455
426
422
440
441
454
479
483
474
451
488
488
396
475
469
446
493
458
477
448
452
456
478
470
460
477
496
472
526
493
521
495
537
512
512
485
497
449
422
465
471
479
501
512
538
855
990
868
478
230
361
408
392
455
405
427
470
448
459
485
437
452
473
484
480
493
533
529
508
590
533
533
554
581
614
566
577
586
602
533
543
507
442
452
450
408
384
441
407
421
396
436
453
391
463
459
461
448
437
433
486
528
474
489
501
428
480
486
462
462
467
505
471
478
490
476
478
494
510
538
480
508
507
548
481
463
478
451
477
467
469
469
471
411
640
940
990
758
399
283
332
400
448
453
425
390
438
444
425
445
451
484
487
491
479
501
520
528
505
567
583
558
587
653
541
577
618
578
545
524
482
451
466
399
439
440
403
406
440
423
423
474
438
415
429
449
452
483
472
447
489
489
512
436
462
471
498
451
471
465
450
479
480
489
462
447
540
495
518
471
515
543
544
497
479
475
443
490
500
472
493
392
453
769
990
991
645
273
388
388
403
412
412
454
436
412
430
482
487
455
463
486
514
488
493
480
520
564
520
546
573
573
612
634
565
557
564
559
553
541
480
448
446
430
377
413
420
387
419
432
435
453
486
472
413
444
490
469
460
461
500
450
491
476
441
518
502
473
482
433
469
455
423
507
472
476
501
479
495
507
522
541
523
503
488
445
493
448
480
471
498
498
448
455
814
989
991
621
217
340
422
410
422
420
406
423
456
439
443
432
433
470
522
497
458
484
501
552
525
540
532
613
585
569
600
558
565
588
569
530
496
443
423
401
398
426
424
415
419
449
456
449
433
443
456
481
453
479
429
460
463
463
470
484
483
498
501
553
433
470
490
485
452
495
490
494
467
440
515
484
461
513
484
531
558
520
500
474
473
477
455
450
465
468
408
735
990
989
748
296
330
333
425
428
390
433
415
430
456
509
440
464
513
456
477
481
514
518
523
522
576
576
564
570
631
539
597
611
565
573
508
531
488
466
405
399
418
407
394
441
427
390
423
464
492
402
411
449
474
472
437
468
430
478
485
461
483
512
460
476
489
467
506
456
509
485
499
491
442
505
499
512
533
520
533
530
526
535
509
474
456
456
506
453
450
495
471
489
426
584
987
988
840
393
311
349
375
385
480
406
452
426
467
459
499
467
465
493
473
477
562
548
547
530
513
567
553
572
617
554
637
541
584
559
565
500
453
463
425
401
317
386
400
442
419
435
432
450
424
408
457
457
459
452
485
455
448
508
479
583
365
480
458
479
456
445
460
463
458
458
497
482
416
481
494
537
451
481
552
564
502
472
474
468
448
475
466
450
421
422
388
570
883
989
888
464
235
342
381
402
368
444
425
445
433
497
491
420
461
483
483
483
508
533
459
542
548
541
545
608
574
595
563
601
581
595
530
543
462
472
433
417
419
382
418
428
383
410
393
416
404
452
446
458
446
499
426
466
465
469
539
461
478
479
462
490
508
487
476
465
494
476
461
434
492
462
494
483
503
517
450
450
517
581
538
544
488
465
481
478
501
492
480
443
453
556
924
989
947
512
243
353
400
416
438
433
438
385
447
470
464
448
440
475
525
536
477
480
540
583
575
601
548
610
630
601
579
616
549
603
557
496
485
423
420
414
393
423
426
397
406
406
441
412
419
438
471
435
478
510
450
445
481
459
445
442
459
476
511
462
511
453
461
427
464
482
481
490
493
464
528
524
495
485
470
508
589
491
538
511
496
497
457
447
456
478
459
378
737
990
990
754
312
337
373
410
414
433
400
415
461
461
423
473
462
492
470
499
458
510
526
464
566
496
538
538
580
612
607
556
606
571
594
539
502
484
520
431
423
393
403
394
395
383
401
410
409
449
465
451
418
476
430
438
492
422
497
471
451
458
518
459
486
481
454
479
467
483
453
483
543
543
478
464
496
500
500
492
472
526
555
658
506
519
483
491
452
450
457
481
487
462
482
657
990
988
837
389
267
378
398
392
390
415
416
427
449
471
441
431
459
475
489
554
510
508
493
486
530
559
593
614
642
630
593
613
564
547
548
539
492
492
449
448
391
398
368
412
415
410
429
428
448
443
450
431
472
451
463
421
431
422
454
479
491
503
480
477
520
449
466
493
506
457
484
486
507
497
448
482
480
491
453
523
520
496
545
530
600
483
460
471
462
480
482
445
489
400
567
900
988
988
978
542
244
357
373
373
395
439
448
469
441
430
417
476
464
509
531
483
514
491
506
536
552
536
569
588
599
616
618
601
651
542
529
505
486
482
429
393
404
430
382
452
419
438
435
439
428
431
457
416
433
504
465
501
415
460
479
498
473
473
449
560
468
479
499
455
476
462
456
533
457
497
491
500
517
475
533
488
524
574
506
484
433
477
475
468
479
461
488
462
669
990
990
779
310
305
396
393
416
412
429
464
414
430
485
420
440
470
515
494
498
494
547
505
524
542
563
596
603
603
598
657
595
557
565
541
514
542
389
407
425
420
391
441
386
381
447
403
428
387
449
422
462
438
456
481
476
468
480
507
520
464
475
447
536
441
470
467
506
489
478
504
453
497
508
503
467
527
549
594
512
444
442
495
500
468
448
487
481
481
418
603
991
989
834
332
272
367
418
379
375
452
441
458
461
456
472
441
473
496
460
490
507
519
516
550
560
582
576
600
611
577
613
573
558
585
518
509
444
436
425
391
394
383
410
469
400
435
427
466
440
440
457
462
508
500
471
437
495
495
428
508
440
493
492
479
530
484
477
456
480
484
470
451
480
472
519
494
511
515
528
525
503
466
485
497
456
489
491
446
485
435
630
991
989
889
404
307
368
396
399
414
451
431
420
420
450
456
545
447
474
486
476
494
500
568
552
548
569
569
603
589
593
618
648
627
531
569
527
508
475
436
448
412
412
501
430
436
418
451
434
445
458
467
459
487
454
496
482
492
526
420
478
502
481
500
488
477
475
497
542
449
515
552
481
506
494
475
470
486
557
528
533
489
531
538
562
505
463
463
516
474
455
474
508
482
423
541
879
988
955
540
264
361
424
437
432
400
435
424
399
450
444
480
472
490
481
506
511
507
530
557
554
546
602
587
560
621
596
631
596
601
546
512
493
467
436
445
382
427
430
382
438
408
426
445
435
469
471
471
434
468
488
504
502
491
473
497
456
484
494
481
512
476
486
486
479
456
505
489
476
509
518
455
488
515
534
501
498
523
499
525
548
486
472
493
472
452
470
480
477
473
351
577
953
988
922
459
291
390
372
393
409
416
432
411
425
422
444
444
462
491
466
488
456
526
530
500
521
552
526
553
623
605
624
572
570
596
574
537
525
478
438
424
420
372
404
385
417
417
373
426
478
424
474
443
465
469
435
448
508
445
410
477
428
494
468
468
471
505
463
464
457
489
460
469
538
395
493
493
486
507
479
438
494
529
517
512
562
415
452
486
431
474
398
418
466
454
560
849
989
953
556
267
336
388
397
424
409
429
471
469
476
396
452
492
536
483
412
517
521
522
527
519
537
567
603
543
609
578
604
577
553
533
529
544
436
424
424
424
356
405
399
423
406
443
476
395
440
434
424
452
459
467
486
472
471
479
501
494
470
476
498
442
472
454
516
470
452
506
492
507
519
477
481
542
495
530
580
477
517
442
491
456
423
484
496
487
443
430
555
868
990
906
496
226
374
435
356
356
429
419
415
451
474
448
454
445
428
508
483
453
487
505
533
505
495
527
619
561
588
662
580
547
604
550
517
491
462
454
459
439
387
392
414
354
432
421
434
427
433
443
483
437
437
493
467
466
528
440
464
449
495
437
491
524
464
484
480
480
448
437
494
486
477
488
483
498
504
528
547
546
506
532
479
461
462
457
526
434
505
476
447
494
804
990
964
648
256
300
382
385
382
405
420
449
470
411
461
425
475
444
464
474
506
513
535
521
551
599
570
614
579
571
608
583
598
555
542
542
490
518
476
412
395
409
405
420
403
431
419
449
448
471
458
440
422
463
494
453
456
488
464
516
488
478
502
448
453
457
463
493
457
538
447
437
524
482
464
474
490
497
506
552
518
527
481
457
506
461
434
455
481
490
471
426
503
829
989
989
991
619
284
306
395
425
413
388
434
440
443
457
407
470
469
469
542
519
520
509
510
534
529
555
562
560
593
622
590
600
575
598
568
523
469
431
432
419
400
389
442
429
428
434
426
460
434
469
452
435
453
472
485
480
423
470
472
461
510
510
447
455
450
497
417
476
466
497
485
443
453
499
491
484
517
525
541
519
518
535
516
499
509
511
489
461
450
521
494
414
412
745
990
990
737
258
349
390
399
406
417
386
437
438
442
467
421
449
517
492
492
460
484
525
597
551
517
561
600
600
577
596
619
603
545
591
552
548
527
436
446
432
387
393
421
398
407
408
441
432
445
415
458
534
443
457
433
474
523
435
522
432
486
474
540
433
471
434
508
453
532
468
464
501
487
451
464
457
500
532
551
498
543
519
517
446
443
504
466
466
437
486
449
484
383
651
991
990
899
384
269
354
385
399
388
404
405
427
456
485
460
447
481
466
454
530
518
489
498
542
546
544
601
589
649
598
594
561
571
554
534
497
487
428
440
410
387
395
393
393
383
398
432
429
433
457
459
488
470
470
516
483
479
504
473
435
468
507
480
418
481
484
447
443
481
497
469
484
516
505
510
498
509
539
538
544
495
500
484
479
433
496
457
458
462
446
434
763
987
990
694
215
329
324
382
399
404
446
414
441
483
475
464
512
475
540
478
527
557
557
500
522
551
552
590
627
603
588
630
619
563
586
553
479
488
444
434
377
430
400
368
369
409
418
446
475
449
501
445
492
482
440
492
473
451
492
441
497
479
456
542
529
459
491
511
530
452
486
471
491
494
503
476
531
520
515
491
524
470
470
434
450
453
477
461
508
463
754
991
785
613
224
357
363
438
426
443
431
391
441
441
485
423
452
428
488
533
526
474
491
626
572
562
552
558
548
593
570
626
586
561
532
479
459
416
404
423
393
411
427
404
439
458
388
480
413
429
493
449
449
452
505
443
500
480
488
419
469
449
491
499
479
497
463
412
447
456
477
516
480
499
451
487
535
500
463
501
397
504
483
487
438
442
464
474
655
878
991
668
465
336
450
402
429
365
406
439
422
417
447
441
469
478
529
497
488
488
489
561
561
499
498
542
601
544
610
616
528
521
568
602
508
485
467
423
357
473
371
429
391
420
457
424
470
466
451
398
456
532
410
395
493
477
428
472
446
410
438
457
449
450
545
493
428
451
498
511
469
516
507
531
563
498
428
516
442
478
469
534
534
470
478
458
520
906
988
910
543
259
332
357
399
346
413
476
427
524
445
419
522
447
487
459
518
491
540
498
519
548
581
627
614
671
640
619
619
575
616
630
576
506
457
450
385
411
396
382
445
494
418
423
441
442
418
456
464
526
486
467
467
477
492
506
476
515
499
473
428
451
477
525
532
471
491
481
572
530
538
528
544
485
469
420
539
487
565
412
499
442
419
820
988
990
631
173
264
397
456
445
360
419
418
448
487
490
387
459
547
473
486
456
537
583
514
589
596
613
596
606
606
654
587
622
657
578
565
551
487
482
426
464
448
362
363
375
410
411
424
411
465
435
458
463
459
533
403
428
444
483
528
479
481
493
454
428
424
472
469
514
427
462
487
522
506
535
563
508
429
435
402
458
480
465
438
465
386
444
771
990
990
991
635
151
270
386
394
389
399
378
395
432
434
430
435
437
474
484
363
423
484
453
509
518
530
542
560
581
606
598
526
523
565
521
505
454
427
403
385
330
364
339
354
418
370
424
438
412
430
424
432
431
476
431
438
461
436
470
466
457
457
448
416
476
467
472
455
494
477
504
499
468
556
560
544
543
542
534
494
476
450
512
567
412
449
462
519
825
989
991
664
192
255
411
353
458
425
408
467
481
471
442
441
482
541
519
482
467
525
532
564
529
551
590
585
682
646
670
557
622
622
589
581
532
554
451
386
453
426
435
413
384
455
376
488
472
449
524
444
439
421
496
477
474
508
455
420
466
460
521
498
451
485
460
419
428
470
474
443
473
507
502
487
476
510
516
506
519
417
439
443
441
438
446
422
427
781
990
983
683
683
215
271
393
400
393
382
415
399
416
447
405
443
479
488
501
495
521
492
436
503
515
587
579
538
580
565
551
579
587
546
569
548
532
453
433
451
401
392
408
434
422
416
399
430
476
487
469
471
448
442
474
491
482
529
503
512
532
547
523
523
420
486
482
540
487
507
553
505
506
537
504
559
534
554
503
488
497
470
476
500
489
492
476
517
884
989
944
576
257
339
398
457
443
456
452
433
438
523
507
470
484
521
522
463
495
563
496
530
527
544
585
590
559
527
576
591
624
570
571
571
506
491
429
438
488
369
414
425
402
435
436
440
433
421
447
438
472
494
459
501
431
454
527
447
494
493
474
480
452
474
455
475
499
496
512
501
474
492
518
524
519
503
457
438
526
494
455
436
471
457
403
676
986
990
774
402
310
416
374
374
409
438
427
471
448
413
434
446
430
493
512
500
515
484
495
545
535
517
588
609
548
562
547
584
596
574
559
570
519
482
458
454
383
425
424
460
430
425
411
450
462
453
483
468
434
419
468
435
470
483
493
483
445
486
492
473
491
454
508
508
473
464
501
541
488
507
512
547
565
508
505
489
443
483
475
472
491
475
472
468
739
990
991
712
289
354
367
471
407
388
417
460
390
508
470
474
503
451
483
486
486
518
492
527
562
563
526
591
562
591
610
631
593
606
601
519
490
465
426
426
431
397
403
407
474
422
432
440
425
503
450
492
455
485
503
503
485
489
474
476
517
469
459
484
512
443
469
474
498
463
451
505
508
532
518
446
506
542
534
502
493
438
483
506
510
433
462
511
424
529
828
988
982
519
248
361
380
427
457
457
489
398
460
441
406
481
437
510
502
510
477
486
474
484
537
524
586
574
581
581
636
601
556
596
593
577
535
474
505
393
403
423
384
371
443
427
466
390
442
411
440
444
433
459
458
505
516
460
480
498
442
495
474
502
499
435
460
462
468
468
508
464
486
488
476
463
492
495
527
488
528
507
527
546
488
410
464
452
465
452
469
464
444
465
745
990
991
673
203
370
354
396
419
395
439
341
429
464
425
473
522
492
473
438
458
499
504
519
520
587
504
577
598
602
556
584
565
560
551
551
554
507
471
358
384
365
388
435
453
378
397
423
430
423
394
433
472
490
464
464
472
478
453
456
468
457
455
495
483
492
452
464
483
453
513
494
463
481
487
464
492
505
495
519
518
478
505
546
530
549
475
494
494
498
440
486
493
454
447
447
390
673
962
989
839
394
282
389
378
392
380
420
447
481
448
447
419
452
473
475
523
498
522
492
496
552
531
590
577
652
601
557
619
599
615
563
504
514
460
440
403
443
408
432
380
411
442
408
426
464
429
425
469
519
502
499
476
473
437
437
490
504
458
477
479
515
488
543
448
460
465
468
473
480
487
516
518
499
479
512
478
497
579
487
500
523
548
561
521
544
522
477
472
495
483
536
461
499
458
461
838
988
991
633
239
330
353
461
402
443
458
422
457
462
466
521
506
540
518
518
519
512
484
544
532
551
584
582
580
602
656
639
584
584
575
559
566
529
449
406
404
418
402
424
408
394
456
410
409
441
466
450
486
403
468
459
512
473
476
510
436
463
446
461
469
485
486
483
474
511
492
428
473
484
481
497
477
512
449
449
465
489
481
489
518
564
506
521
533
477
443
476
490
460
487
478
477
429
497
788
990
977
632
207
314
365
399
419
407
400
470
450
444
502
455
482
472
498
521
488
504
540
504
533
536
582
610
554
588
593
576
575
589
543
542
506
494
428
435
435
370
398
394
414
430
400
409
512
483
420
441
451
484
473
420
497
494
433
490
451
475
479
408
474
469
470
451
509
491
449
457
490
430
441
494
453
509
496
503
459
546
561
479
506
477
428
449
498
513
398
475
451
557
853
990
865
457
218
343
343
391
397
417
390
423
466
439
417
462
459
465
472
487
500
503
490
527
551
507
549
576
568
622
600
591
591
607
581
533
511
440
414
421
398
387
410
428
416
383
392
385
417
411
461
449
460
453
498
492
498
455
443
476
422
486
489
484
476
455
455
485
460
471
489
465
472
534
481
537
447
469
487
535
485
532
534
538
491
490
451
466
446
457
438
499
457
435
465
840
990
982
690
251
338
401
420
402
414
418
419
481
435
437
514
436
484
503
509
489
541
578
518
515
580
576
559
566
626
604
604
607
601
591
556
580
520
465
484
439
416
396
421
446
385
447
474
388
471
471
456
453
459
460
444
445
491
479
481
486
488
465
468
500
508
507
478
464
494
494
505
488
516
373
455
492
525
443
500
485
508
462
542
533
528
512
477
451
489
495
495
477
453
459
462
565
868
989
946
573
249
354
405
395
414
401
415
395
428
436
437
443
479
472
492
515
508
544
552
496
513
536
528
591
618
656
617
595
601
589
519
519
469
478
393
462
442
368
362
400
424
414
421
424
434
437
441
424
448
478
478
460
496
459
464
446
425
481
480
491
505
474
487
489
495
464
442
515
453
477
475
464
486
508
497
568
436
493
516
518
553
540
517
514
495
507
441
460
438
499
505
478
446
537
846
988
943
545
234
348
400
456
353
415
438
464
455
414
490
419
419
483
483
448
524
500
482
499
556
565
579
592
559
659
557
642
647
613
612
573
534
482
483
404
415
405
398
408
395
435
414
435
419
456
420
427
453
421
422
455
469
526
469
446
479
469
454
442
472
469
513
510
426
453
462
498
472
480
477
477
477
498
493
475
499
481
485
489
488
504
528
518
471
483
544
497
497
534
454
494
447
458
464
485
482
425
442
765
989
990
752
218
302
376
373
378
463
449
412
442
483
480
422
493
474
522
473
488
471
583
543
535
524
613
594
611
625
629
615
600
600
575
556
550
494
471
431
420
389
403
343
410
464
426
409
469
436
426
445
442
469
427
466
474
497
468
471
470
479
433
458
459
475
444
507
478
486
472
467
500
447
458
455
484
478
468
497
531
449
491
497
494
510
543
506
542
448
508
492
449
449
495
481
462
482
453
580
895
989
860
511
272
358
430
376
406
426
467
436
432
453
491
480
477
515
512
504
466
532
499
530
538
564
581
561
610
637
606
594
628
579
557
523
455
472
381
390
414
436
370
387
391
415
397
451
425
445
470
440
401
401
484
502
423
477
501
464
466
451
488
478
453
499
448
430
455
462
502
476
486
457
484
536
459
503
442
540
442
492
476
488
518
552
528
534
509
456
477
402
477
474
501
472
413
460
839
990
962
658
264
341
474
411
368
442
430
446
397
444
465
465
469
502
418
463
486
479
517
519
529
524
533
507
601
603
609
577
605
606
554
558
525
480
464
387
364
408
424
434
484
379
404
474
420
428
412
469
477
442
474
489
443
474
421
449
500
443
490
526
484
450
464
469
480
458
503
461
444
529
476
476
486
471
478
470
489
471
508
445
482
513
493
502
569
552
508
501
511
487
433
459
500
455
463
421
568
925
988
886
485
264
362
375
378
372
448
417
424
485
399
409
469
431
500
493
492
519
534
555
533
518
566
543
603
622
647
596
586
643
591
591
563
513
449
450
426
409
352
412
368
411
403
389
442
434
443
474
503
437
436
445
429
432
422
472
436
458
491
532
490
459
480
457
472
474
493
411
462
482
476
524
507
525
417
466
506
499
509
489
503
534
517
510
480
559
524
543
473
468
452
452
506
457
484
476
487
422
650
945
989
820
415
289
362
410
387
362
399
463
452
412
427
509
444
471
503
505
492
461
531
503
524
558
542
581
573
603
663
586
590
596
598
612
496
482
423
431
397
393
385
432
384
351
399
417
463
369
445
460
450
450
461
443
473
457
451
507
444
456
510
491
462
448
468
502
459
487
485
499
454
479
495
469
489
535
474
438
498
536
470
504
507
499
527
500
507
556
556
461
465
483
486
486
483
459
466
437
764
990
990
722
376
256
375
393
366
421
419
439
440
440
470
452
492
500
433
497
482
513
524
492
522
572
585
550
572
610
603
613
611
619
589
561
541
512
496
456
403
375
372
401
390
471
433
413
402
433
411
457
415
448
501
470
474
547
415
469
467
484
460
444
504
484
434
464
480
454
476
476
453
453
470
467
486
476
552
493
464
491
512
560
474
511
554
547
524
522
463
489
500
434
494
495
481
413
465
863
990
939
624
208
357
369
415
457
410
414
446
428
460
465
502
468
476
497
508
494
564
459
476
523
542
543
617
622
618
634
577
605
595
595
551
489
499
468
441
441
419
370
385
399
438
393
482
448
392
413
422
445
448
477
444
484
471
499
485
457
456
478
445
442
499
482
443
505
470
465
475
471
486
512
436
477
493
473
498
463
495
493
495
508
489
496
494
524
532
519
474
483
480
480
440
493
526
449
474
415
624
936
989
877
477
266
343
381
367
417
438
412
448
423
411
466
479
529
402
391
482
502
545
542
501
546
543
559
618
576
605
632
627
598
607
555
481
503
498
445
386
424
413
385
371
395
393
436
485
420
441
457
468
468
462
467
474
448
447
506
526
447
480
437
484
465
485
454
529
470
470
485
458
470
473
504
523
472
491
501
469
496
484
460
510
481
533
459
515
523
533
498
489
509
503
445
482
481
500
452
476
439
430
751
989
987
678
276
342
396
400
362
419
419
407
423
471
457
443
400
459
514
433
496
489
515
501
516
518
598
546
595
631
545
627
621
611
567
577
550
522
471
428
371
417
405
368
392
420
373
441
422
393
440
427
460
437
475
502
460
448
484
482
446
495
433
487
457
485
519
455
500
465
465
468
519
477
474
451
418
502
496
545
474
494
490
482
479
512
504
515
490
484
543
514
576
492
456
484
455
478
469
524
476
486
358
638
991
988
892
411
276
358
411
399
463
455
443
435
414
445
455
505
458
474
511
512
495
495
503
570
547
572
572
555
620
588
615
579
603
601
583
559
525
523
472
397
377
385
385
399
414
383
400
402
430
502
418
437
489
484
419
460
475
491
434
486
476
539
424
458
498
441
446
451
442
453
476
478
523
464
506
494
475
493
487
476
501
520
495
545
540
499
499
521
555
518
488
493
493
436
507
426
496
444
457
698
991
990
763
338
272
403
399
396
454
420
460
470
438
463
449
492
515
488
495
512
497
532
546
539
567
576
573
604
635
600
637
652
552
568
540
535